时间,设备名称,片上时间(),加速度X(g),加速度Y(g),加速度Z(g),角速度X(°/s),角速度Y(°/s),角速度Z(°/s),角度X(°),角度Y(°),角度Z(°),磁场X(ʯt),磁场Y(ʯt),磁场Z(ʯt),温度(℃),四元数0(),四元数1(),四元数2(),四元数3()
 11:23:17.884,e8:9e:2c:53:09:e3, 2024-07-06 21:57:22:805, 0.973, -0.03, -0.176, 0.305, 0.977, 0.732, -160.406, -80.601, -53.459, -41.783, -44.500, 45.733, 29.05, -0.16776, -0.72177, 0.2356, -0.62872,
 11:23:17.959,e8:9e:2c:53:09:e3, 2024-07-06 21:57:22:905, 0.972, -0.031, -0.175, 0.122, 1.099, 0.366, -160.494, -80.618, -53.91, -41.842, -44.367, 45.775, 29.05, -0.16776, -0.72177, 0.2356, -0.62872,
 11:23:18.079,e8:9e:2c:53:09:e3, 2024-07-06 21:57:23:005, 0.971, -0.026, -0.175, 0.244, 1.221, 0.427, -160.67, -80.656, -54.316, -41.842, -44.367, 45.775, 29.05, -0.17685, -0.71838, 0.24588, -0.62616,
 11:23:18.168,e8:9e:2c:53:09:e3, 2024-07-06 21:57:23:105, 0.97, -0.029, -0.172, 1.038, 1.221, 0.61, -160.741, -80.695, -54.833, -41.842, -44.367, 45.775, 29.05, -0.17685, -0.71838, 0.24588, -0.62616,
 11:23:18.289,e8:9e:2c:53:09:e3, 2024-07-06 21:57:23:205, 0.973, -0.026, -0.172, 1.526, 0.977, 1.221, -160.532, -80.711, -55.497, -41.808, -44.550, 45.442, 29.05, -0.18484, -0.71457, 0.25571, -0.62427,
 11:23:18.365,e8:9e:2c:53:09:e3, 2024-07-06 21:57:23:305, 0.971, -0.032, -0.175, 2.258, 0.732, 1.465, -160.016, -80.678, -56.475, -41.808, -44.550, 45.442, 29.05, -0.18484, -0.71457, 0.25571, -0.62427,
 11:23:18.484,e8:9e:2c:53:09:e3, 2024-07-06 21:57:23:405, 0.971, -0.03, -0.175, 2.747, 0.916, 1.038, -159.576, -80.656, -57.283, -41.808, -44.550, 45.442, 29.05, -0.18484, -0.71457, 0.25571, -0.62427,
 11:23:18.574,e8:9e:2c:53:09:e3, 2024-07-06 21:57:23:505, 0.973, -0.034, -0.175, 2.197, 0.854, 1.343, -159.093, -80.64, -58.123, -41.808, -44.550, 45.442, 29.05, -0.18484, -0.71457, 0.25571, -0.62427,
 11:23:18.693,e8:9e:2c:53:09:e3, 2024-07-06 21:57:23:605, 0.973, -0.032, -0.174, 2.38, 0.854, 1.587, -158.533, -80.623, -59.095, -41.858, -44.125, 45.917, 29.05, -0.19052, -0.71066, 0.26593, -0.62277,
 11:23:18.768,e8:9e:2c:53:09:e3, 2024-07-06 21:57:23:705, 0.971, -0.04, -0.176, 2.808, 0.854, 0.977, -157.95, -80.579, -60.046, -41.858, -44.125, 45.917, 29.05, -0.19052, -0.71066, 0.26593, -0.62277,
 11:23:18.889,e8:9e:2c:53:09:e3, 2024-07-06 21:57:23:805, 0.97, -0.039, -0.173, 2.319, 1.282, 0.244, -157.802, -80.618, -60.551, -42.058, -43.725, 45.750, 29.05, -0.19489, -0.70819, 0.27151, -0.6218,
 11:23:18.963,e8:9e:2c:53:09:e3, 2024-07-06 21:57:23:905, 0.976, -0.036, -0.174, 1.892, 0.732, 0.732, -157.725, -80.623, -60.996, -42.058, -43.725, 45.750, 29.05, -0.19489, -0.70819, 0.27151, -0.6218,
 11:23:19.084,e8:9e:2c:53:09:e3, 2024-07-06 21:57:24:005, 0.971, -0.036, -0.177, 0.61, 0.732, 0.916, -157.588, -80.607, -61.622, -42.058, -43.725, 45.750, 29.05, -0.19489, -0.70819, 0.27151, -0.6218,
 11:23:19.174,e8:9e:2c:53:09:e3, 2024-07-06 21:57:24:105, 0.973, -0.035, -0.173, 0.122, 0.488, 0.549, -157.659, -80.59, -62.1, -41.858, -43.700, 45.583, 29.05, -0.19489, -0.70819, 0.27151, -0.6218,
 11:23:19.294,e8:9e:2c:53:09:e3, 2024-07-06 21:57:24:205, 0.973, -0.037, -0.171, 0.366, 0.244, 0.671, -157.813, -80.546, -62.463, -41.858, -43.700, 45.583, 29.05, -0.20312, -0.70474, 0.28152, -0.61865,
 11:23:19.384,e8:9e:2c:53:09:e3, 2024-07-06 21:57:24:305, 0.971, -0.038, -0.177, 1.343, 0.427, 0.122, -158.044, -80.502, -62.644, -41.858, -43.700, 45.583, 29.05, -0.20312, -0.70474, 0.28152, -0.61865,
 11:23:19.505,e8:9e:2c:53:09:e3, 2024-07-06 21:57:24:405, 0.97, -0.036, -0.177, 1.038, 0.122, 0.427, -158.258, -80.464, -62.869, -41.858, -43.817, 45.742, 29.05, -0.20959, -0.70267, 0.28906, -0.61536,
 11:23:19.610,e8:9e:2c:53:09:e3, 2024-07-06 21:57:24:505, 0.971, -0.034, -0.178, 0.977, 0.366, 0.488, -158.472, -80.409, -63.083, -41.858, -43.817, 45.742, 29.05, -0.20959, -0.70267, 0.28906, -0.61536,
 11:23:19.699,e8:9e:2c:53:09:e3, 2024-07-06 21:57:24:605, 0.97, -0.035, -0.179, 1.16, 0.244, 0.305, -158.719, -80.365, -63.248, -41.667, -43.883, 46.025, 29.05, -0.20959, -0.70267, 0.28906, -0.61536,
 11:23:19.773,e8:9e:2c:53:09:e3, 2024-07-06 21:57:24:705, 0.968, -0.036, -0.182, 0.061, 0, 0.793, -158.989, -80.294, -63.517, -41.667, -43.883, 46.025, 29.05, -0.21561, -0.70074, 0.29617, -0.61209,
 11:23:19.894,e8:9e:2c:53:09:e3, 2024-07-06 21:57:24:805, 0.969, -0.036, -0.182, 1.038, 0.305, -0.061, -159.395, -80.233, -63.704, -41.667, -43.883, 46.025, 29.05, -0.21561, -0.70074, 0.29617, -0.61209,
 11:23:19.970,e8:9e:2c:53:09:e3, 2024-07-06 21:57:24:905, 0.97, -0.03, -0.182, 1.343, 0.427, 0.61, -159.697, -80.211, -63.842, -41.550, -44.158, 46.000, 29.05, -0.21561, -0.70074, 0.29617, -0.61209,
 11:23:20.107,e8:9e:2c:53:09:e3, 2024-07-06 21:57:25:005, 0.966, -0.036, -0.185, 2.136, 0.427, 0.488, -159.664, -80.167, -64.259, -41.550, -44.158, 46.000, 29.05, -0.2226, -0.69818, 0.30411, -0.60858,
 11:23:20.179,e8:9e:2c:53:09:e3, 2024-07-06 21:57:25:105, 0.968, -0.036, -0.183, 3.113, 0.488, 0.183, -159.714, -80.14, -64.512, -41.550, -44.158, 46.000, 29.05, -0.2226, -0.69818, 0.30411, -0.60858,
 11:23:20.299,e8:9e:2c:53:09:e3, 2024-07-06 21:57:25:205, 0.973, -0.028, -0.189, 2.441, 1.038, 0.671, -159.785, -80.134, -64.655, -41.367, -43.925, 46.342, 29.05, -0.22675, -0.69598, 0.30939, -0.6069,
 11:23:20.375,e8:9e:2c:53:09:e3, 2024-07-06 21:57:25:305, 0.971, -0.034, -0.185, 2.808, 1.038, 1.099, -159.439, -80.14, -65.352, -41.367, -43.925, 46.342, 29.05, -0.22675, -0.69598, 0.30939, -0.6069,
 11:23:20.493,e8:9e:2c:53:09:e3, 2024-07-06 21:57:25:405, 0.97, -0.041, -0.182, 2.075, 0.916, 1.587, -158.774, -80.123, -66.462, -41.367, -43.925, 46.342, 29.05, -0.22675, -0.69598, 0.30939, -0.6069,
 11:23:20.585,e8:9e:2c:53:09:e3, 2024-07-06 21:57:25:505, 0.968, -0.036, -0.185, 2.808, 1.221, -0.244, -158.604, -80.14, -66.907, -41.550, -43.525, 46.517, 29.05, -0.22675, -0.69598, 0.30939, -0.6069,
 11:23:20.704,e8:9e:2c:53:09:e3, 2024-07-06 21:57:25:605, 0.968, -0.033, -0.18, 0.244, 2.075, -0.061, -158.835, -80.239, -67.039, -41.550, -43.525, 46.517, 29.05, -0.23239, -0.69217, 0.31619, -0.60565,
 11:23:20.779,e8:9e:2c:53:09:e3, 2024-07-06 21:57:25:705, 0.969, -0.031, -0.185, 1.099, 2.014, 0.488, -158.846, -80.332, -67.462, -41.550, -43.525, 46.517, 29.05, -0.23239, -0.69217, 0.31619, -0.60565,
 11:23:20.898,e8:9e:2c:53:09:e3, 2024-07-06 21:57:25:805, 0.972, -0.032, -0.179, 2.38, 1.892, 0.427, -158.643, -80.425, -68.06, -41.717, -43.508, 46.558, 29.05, -0.2395, -0.6875, 0.32242, -0.60489,
 11:23:20.989,e8:9e:2c:53:09:e3, 2024-07-06 21:57:25:905, 0.971, -0.043, -0.176, 1.709, 2.136, 0.305, -158.34, -80.53, -68.752, -41.717, -43.508, 46.558, 29.05, -0.2395, -0.6875, 0.32242, -0.60489,
 11:23:21.124,e8:9e:2c:53:09:e3, 2024-07-06 21:57:26:005, 0.969, -0.038, -0.172, 1.465, 2.014, 0.488, -158.132, -80.645, -69.428, -41.717, -43.508, 46.558, 29.05, -0.2395, -0.6875, 0.32242, -0.60489,
 11:23:21.184,e8:9e:2c:53:09:e3, 2024-07-06 21:57:26:105, 0.972, -0.041, -0.171, 1.709, 2.197, 0.244, -157.863, -80.76, -70.104, -42.075, -43.608, 45.892, 29.05, -0.2395, -0.6875, 0.32242, -0.60489,
 11:23:21.318,e8:9e:2c:53:09:e3, 2024-07-06 21:57:26:205, 0.97, -0.034, -0.17, 2.38, 1.282, 0.061, -158, -80.854, -70.247, -42.075, -43.608, 45.892, 29.05, -0.24716, -0.68246, 0.32849, -0.60425,
 11:23:21.393,e8:9e:2c:53:09:e3, 2024-07-06 21:57:26:305, 0.973, -0.037, -0.166, 3.113, -0.671, 2.319, -157.533, -80.766, -71.032, -42.075, -43.608, 45.892, 29.05, -0.24716, -0.68246, 0.32849, -0.60425,
 11:23:21.515,e8:9e:2c:53:09:e3, 2024-07-06 21:57:26:405, 0.971, -0.038, -0.175, 3.418, -1.343, 2.319, -156.83, -80.519, -71.938, -42.058, -42.900, 46.158, 29.05, -0.24902, -0.68008, 0.33786, -0.60098,
 11:23:21.588,e8:9e:2c:53:09:e3, 2024-07-06 21:57:26:505, 0.969, -0.048, -0.176, -0.122, -0.366, 2.319, -156.226, -80.321, -73.087, -42.058, -42.900, 46.158, 29.05, -0.24902, -0.68008, 0.33786, -0.60098,
 11:23:21.708,e8:9e:2c:53:09:e3, 2024-07-06 21:57:26:605, 0.971, -0.045, -0.179, 1.404, 0.671, 0.366, -156.061, -80.228, -73.729, -42.058, -42.900, 46.158, 29.05, -0.24902, -0.68008, 0.33786, -0.60098,
 11:23:21.784,e8:9e:2c:53:09:e3, 2024-07-06 21:57:26:705, 0.97, -0.047, -0.178, 1.282, 1.953, 0.061, -156.127, -80.261, -74.015, -42.017, -42.883, 46.392, 29.05, -0.24902, -0.68008, 0.33786, -0.60098,
 11:23:21.919,e8:9e:2c:53:09:e3, 2024-07-06 21:57:26:805, 0.976, -0.042, -0.177, 2.258, 2.686, -1.038, -156.275, -80.414, -74.152, -42.017, -42.883, 46.392, 29, -0.25568, -0.67624, 0.34473, -0.59866,
 11:23:21.993,e8:9e:2c:53:09:e3, 2024-07-06 21:57:26:905, 0.974, -0.043, -0.176, 0.305, 3.357, -1.526, -156.638, -80.684, -74.191, -42.017, -42.883, 46.392, 29, -0.25568, -0.67624, 0.34473, -0.59866,
 11:23:22.114,e8:9e:2c:53:09:e3, 2024-07-06 21:57:27:005, 0.972, -0.032, -0.157, 2.136, 2.808, -1.343, -157.258, -80.964, -73.938, -42.017, -42.883, 46.392, 29, -0.25568, -0.67624, 0.34473, -0.59866,
 11:23:22.205,e8:9e:2c:53:09:e3, 2024-07-06 21:57:27:105, 0.972, -0.032, -0.162, 1.038, 1.77, -0.122, -157.632, -81.129, -73.889, -42.358, -43.142, 45.833, 29, -0.25568, -0.67624, 0.34473, -0.59866,
 11:23:22.309,e8:9e:2c:53:09:e3, 2024-07-06 21:57:27:205, 0.973, -0.033, -0.159, 1.099, 0.305, 1.099, -157.709, -81.151, -74.366, -42.358, -43.142, 45.833, 29, -0.26874, -0.66965, 0.35022, -0.59714,
 11:23:22.399,e8:9e:2c:53:09:e3, 2024-07-06 21:57:27:305, 0.973, -0.038, -0.165, 2.441, -0.61, 1.404, -157.5, -81.035, -75.037, -42.358, -43.142, 45.833, 29, -0.26874, -0.66965, 0.35022, -0.59714,
 11:23:22.519,e8:9e:2c:53:09:e3, 2024-07-06 21:57:27:405, 0.973, -0.037, -0.169, 5.127, -0.916, 0.732, -157.319, -80.881, -75.416, -42.208, -42.875, 46.125, 29, -0.2702, -0.66858, 0.35629, -0.59412,
 11:23:22.593,e8:9e:2c:53:09:e3, 2024-07-06 21:57:27:505, 0.972, -0.036, -0.175, 3.723, -0.793, 1.099, -157.214, -80.711, -75.608, -42.208, -42.875, 46.125, 29, -0.2702, -0.66858, 0.35629, -0.59412,
 11:23:22.717,e8:9e:2c:53:09:e3, 2024-07-06 21:57:27:605, 0.972, -0.043, -0.173, 1.648, 0, 0.854, -157.17, -80.59, -76.025, -42.208, -42.875, 46.125, 29, -0.2702, -0.66858, 0.35629, -0.59412,
 11:23:22.789,e8:9e:2c:53:09:e3, 2024-07-06 21:57:27:705, 0.971, -0.04, -0.177, 1.16, 0.427, 1.099, -157.104, -80.513, -76.487, -41.792, -42.425, 46.583, 29, -0.2702, -0.66858, 0.35629, -0.59412,
 11:23:22.942,e8:9e:2c:53:09:e3, 2024-07-06 21:57:27:805, 0.971, -0.045, -0.178, 0, 1.526, 0.854, -156.896, -80.502, -77.25, -41.792, -42.425, 46.583, 29, -0.27563, -0.66501, 0.36554, -0.58997,
 11:23:22.998,e8:9e:2c:53:09:e3, 2024-07-06 21:57:27:905, 0.972, -0.039, -0.173, 0.305, 1.77, 0.549, -156.802, -80.568, -77.893, -41.792, -42.425, 46.583, 29, -0.27563, -0.66501, 0.36554, -0.58997,
 11:23:23.118,e8:9e:2c:53:09:e3, 2024-07-06 21:57:28:005, 0.972, -0.039, -0.172, 2.075, 0.977, 0.793, -156.599, -80.601, -78.514, -42.008, -42.525, 46.183, 29, -0.28156, -0.6608, 0.37173, -0.58804,
 11:23:23.193,e8:9e:2c:53:09:e3, 2024-07-06 21:57:28:105, 0.971, -0.037, -0.173, 2.747, 0.488, 0.916, -156.374, -80.579, -79.03, -42.008, -42.525, 46.183, 29, -0.28156, -0.6608, 0.37173, -0.58804,
 11:23:23.313,e8:9e:2c:53:09:e3, 2024-07-06 21:57:28:205, 0.971, -0.04, -0.173, 1.587, -0.244, 1.343, -156.143, -80.497, -79.651, -42.100, -42.292, 46.417, 29, -0.28488, -0.65805, 0.37799, -0.58551,
 11:23:23.403,e8:9e:2c:53:09:e3, 2024-07-06 21:57:28:305, 0.971, -0.045, -0.175, 1.892, -0.122, 1.343, -155.896, -80.392, -80.332, -42.100, -42.292, 46.417, 29, -0.28488, -0.65805, 0.37799, -0.58551,
 11:23:23.524,e8:9e:2c:53:09:e3, 2024-07-06 21:57:28:405, 0.97, -0.043, -0.181, 1.587, 0.366, 0.488, -155.841, -80.316, -80.7, -42.100, -42.292, 46.417, 29, -0.28488, -0.65805, 0.37799, -0.58551,
 11:23:23.600,e8:9e:2c:53:09:e3, 2024-07-06 21:57:28:505, 0.97, -0.046, -0.18, 1.282, 0.549, 0.793, -155.847, -80.272, -81.134, -41.917, -42.017, 46.792, 29, -0.28488, -0.65805, 0.37799, -0.58551,
 11:23:23.733,e8:9e:2c:53:09:e3, 2024-07-06 21:57:28:605, 0.97, -0.042, -0.183, 2.441, 0.732, 0.793, -155.781, -80.239, -81.546, -41.917, -42.017, 46.792, 29, -0.28983, -0.6546, 0.38565, -0.58197,
 11:23:23.809,e8:9e:2c:53:09:e3, 2024-07-06 21:57:28:705, 0.972, -0.046, -0.182, 2.991, 1.587, 0, -155.555, -80.25, -82.084, -41.917, -42.017, 46.792, 29, -0.28983, -0.6546, 0.38565, -0.58197,
 11:23:23.928,e8:9e:2c:53:09:e3, 2024-07-06 21:57:28:805, 0.973, -0.038, -0.178, -0.793, 3.479, -0.793, -155.704, -80.414, -82.282, -41.975, -41.942, 46.700, 29, -0.29752, -0.64963, 0.39062, -0.58032,
 11:23:24.004,e8:9e:2c:53:09:e3, 2024-07-06 21:57:28:905, 0.972, -0.042, -0.168, 0.061, 2.014, 0.732, -155.836, -80.618, -82.798, -41.975, -41.942, 46.700, 29, -0.29752, -0.64963, 0.39062, -0.58032,
 11:23:24.123,e8:9e:2c:53:09:e3, 2024-07-06 21:57:29:005, 0.973, -0.042, -0.172, -0.549, 2.808, -0.244, -155.737, -80.744, -83.485, -41.975, -41.942, 46.700, 29, -0.29752, -0.64963, 0.39062, -0.58032,
 11:23:24.199,e8:9e:2c:53:09:e3, 2024-07-06 21:57:29:105, 0.974, -0.041, -0.165, 1.648, 1.831, -0.549, -156.028, -80.92, -83.677, -42.250, -42.675, 46.133, 29, -0.29752, -0.64963, 0.39062, -0.58032,
 11:23:24.334,e8:9e:2c:53:09:e3, 2024-07-06 21:57:29:205, 0.974, -0.036, -0.165, 3.174, 0.61, -0.427, -156.456, -81.002, -83.502, -42.250, -42.675, 46.133, 29, -0.30759, -0.64355, 0.39676, -0.57767,
 11:23:24.409,e8:9e:2c:53:09:e3, 2024-07-06 21:57:29:305, 0.971, -0.038, -0.167, 2.441, -0.061, -0.061, -156.879, -80.986, -83.337, -42.250, -42.675, 46.133, 29, -0.30759, -0.64355, 0.39676, -0.57767,
 11:23:24.528,e8:9e:2c:53:09:e3, 2024-07-06 21:57:29:405, 0.974, -0.033, -0.168, 2.075, -0.427, 0.305, -157.33, -80.909, -83.183, -42.008, -42.225, 46.317, 29, -0.31131, -0.64206, 0.4017, -0.57388,
 11:23:24.603,e8:9e:2c:53:09:e3, 2024-07-06 21:57:29:505, 0.973, -0.038, -0.173, 1.709, -0.671, 1.343, -157.385, -80.755, -83.535, -42.008, -42.225, 46.317, 29, -0.31131, -0.64206, 0.4017, -0.57388,
 11:23:24.724,e8:9e:2c:53:09:e3, 2024-07-06 21:57:29:605, 0.969, -0.037, -0.177, 3.052, -0.183, 0.488, -157.412, -80.634, -83.853, -42.008, -42.225, 46.317, 29, -0.31131, -0.64206, 0.4017, -0.57388,
 11:23:24.814,e8:9e:2c:53:09:e3, 2024-07-06 21:57:29:705, 0.968, -0.044, -0.171, 2.258, 0.916, -0.977, -157.665, -80.634, -83.969, -41.942, -42.100, 47.050, 29, -0.31131, -0.64206, 0.4017, -0.57388,
 11:23:24.934,e8:9e:2c:53:09:e3, 2024-07-06 21:57:29:805, 0.968, -0.035, -0.169, 2.38, -0.061, -0.793, -158.527, -80.662, -83.342, -41.942, -42.100, 47.050, 29, -0.31653, -0.63959, 0.40778, -0.56952,
 11:23:25.023,e8:9e:2c:53:09:e3, 2024-07-06 21:57:29:905, 0.972, -0.015, -0.177, -0.977, -1.709, 1.587, -159.164, -80.475, -83.035, -41.942, -42.100, 47.050, 29, -0.31653, -0.63959, 0.40778, -0.56952,
 11:23:25.129,e8:9e:2c:53:09:e3, 2024-07-06 21:57:30:005, 0.975, -0.025, -0.194, -5.92, -1.953, 5.005, -158.61, -80.107, -84.683, -41.608, -42.417, 47.300, 29, -0.32654, -0.63177, 0.42612, -0.55905,
 11:23:25.219,e8:9e:2c:53:09:e3, 2024-07-06 21:57:30:105, 0.967, -0.05, -0.181, -7.996, 1.648, 0.305, -158.637, -80.008, -86.276, -41.608, -42.417, 47.300, 29, -0.32654, -0.63177, 0.42612, -0.55905,
 11:23:25.338,e8:9e:2c:53:09:e3, 2024-07-06 21:57:30:205, 0.97, -0.046, -0.179, 5.188, 2.319, -3.113, -159.686, -80.211, -85.578, -41.608, -42.417, 47.300, 29, -0.32654, -0.63177, 0.42612, -0.55905,
 11:23:25.414,e8:9e:2c:53:09:e3, 2024-07-06 21:57:30:305, 0.97, -0.019, -0.178, 4.822, 1.16, -0.549, -160.631, -80.365, -84.348, -41.592, -43.175, 46.858, 29, -0.32654, -0.63177, 0.42612, -0.55905,
 11:23:25.533,e8:9e:2c:53:09:e3, 2024-07-06 21:57:30:405, 0.972, -0.028, -0.179, 2.808, 0.61, 1.16, -160.56, -80.365, -84.628, -41.592, -43.175, 46.858, 29, -0.33255, -0.63034, 0.42603, -0.55722,
 11:23:25.608,e8:9e:2c:53:09:e3, 2024-07-06 21:57:30:505, 0.968, -0.03, -0.183, 2.93, -0.366, 2.38, -160.104, -80.255, -85.435, -41.592, -43.175, 46.858, 29, -0.33255, -0.63034, 0.42603, -0.55722,
 11:23:25.744,e8:9e:2c:53:09:e3, 2024-07-06 21:57:30:605, 0.968, -0.035, -0.187, 1.038, 0.366, 1.831, -159.423, -80.101, -86.578, -41.533, -42.617, 47.175, 29, -0.33618, -0.62537, 0.43521, -0.55353,
 11:23:25.818,e8:9e:2c:53:09:e3, 2024-07-06 21:57:30:705, 0.969, -0.039, -0.185, 1.343, 1.587, 0.977, -159.071, -80.079, -87.484, -41.533, -42.617, 47.175, 29, -0.33618, -0.62537, 0.43521, -0.55353,
 11:23:25.939,e8:9e:2c:53:09:e3, 2024-07-06 21:57:30:805, 0.97, -0.038, -0.184, 1.404, 1.77, 0.61, -158.802, -80.14, -88.237, -41.533, -42.617, 47.175, 29, -0.33618, -0.62537, 0.43521, -0.55353,
 11:23:26.015,e8:9e:2c:53:09:e3, 2024-07-06 21:57:30:905, 0.972, -0.035, -0.183, 1.221, 2.319, 0.488, -158.61, -80.239, -88.819, -41.717, -42.508, 47.092, 29, -0.33618, -0.62537, 0.43521, -0.55353,
 11:23:26.134,e8:9e:2c:53:09:e3, 2024-07-06 21:57:31:005, 0.971, -0.029, -0.181, 0.305, 2.319, 1.16, -158.269, -80.349, -89.637, -41.717, -42.508, 47.092, 29, -0.34442, -0.61792, 0.44263, -0.5509,
 11:23:26.224,e8:9e:2c:53:09:e3, 2024-07-06 21:57:31:105, 0.969, -0.036, -0.177, 1.16, 2.136, 0.366, -157.906, -80.469, -90.533, -41.717, -42.508, 47.092, 29, -0.34442, -0.61792, 0.44263, -0.5509,
 11:23:26.343,e8:9e:2c:53:09:e3, 2024-07-06 21:57:31:205, 0.971, -0.032, -0.171, 1.892, 1.709, 0.61, -157.703, -80.574, -91.148, -42.033, -42.550, 46.592, 29, -0.35126, -0.61166, 0.44858, -0.54877,
 11:23:26.419,e8:9e:2c:53:09:e3, 2024-07-06 21:57:31:305, 0.971, -0.039, -0.17, 2.258, 0.61, 1.282, -157.302, -80.585, -91.983, -42.033, -42.550, 46.592, 29, -0.35126, -0.61166, 0.44858, -0.54877,
 11:23:26.540,e8:9e:2c:53:09:e3, 2024-07-06 21:57:31:405, 0.97, -0.037, -0.174, 2.747, 0.061, 0.916, -157.05, -80.519, -92.571, -42.033, -42.550, 46.592, 29, -0.35126, -0.61166, 0.44858, -0.54877,
 11:23:26.629,e8:9e:2c:53:09:e3, 2024-07-06 21:57:31:505, 0.97, -0.041, -0.177, 3.967, -0.366, 0.244, -157.039, -80.431, -92.796, -41.908, -42.200, 47.408, 29, -0.35126, -0.61166, 0.44858, -0.54877,
 11:23:26.764,e8:9e:2c:53:09:e3, 2024-07-06 21:57:31:605, 0.972, -0.037, -0.178, 2.869, -0.183, 0.549, -157.247, -80.343, -92.774, -41.908, -42.200, 47.408, 29, -0.35388, -0.6088, 0.4545, -0.54538,
 11:23:26.839,e8:9e:2c:53:09:e3, 2024-07-06 21:57:31:705, 0.972, -0.042, -0.181, 1.404, -0.427, 1.587, -157.181, -80.211, -93.235, -41.908, -42.200, 47.408, 29, -0.35388, -0.6088, 0.4545, -0.54538,
 11:23:26.943,e8:9e:2c:53:09:e3, 2024-07-06 21:57:31:805, 0.97, -0.044, -0.184, 0.305, 0.427, 1.343, -157.022, -80.101, -93.856, -41.642, -41.900, 47.392, 29, -0.35791, -0.60434, 0.46277, -0.54074,
 11:23:27.033,e8:9e:2c:53:09:e3, 2024-07-06 21:57:31:905, 0.97, -0.045, -0.183, 0.916, 0.732, 1.404, -156.78, -80.035, -94.592, -41.642, -41.900, 47.392, 29, -0.35791, -0.60434, 0.46277, -0.54074,
 11:23:27.155,e8:9e:2c:53:09:e3, 2024-07-06 21:57:32:005, 0.969, -0.044, -0.184, 1.77, 1.038, 0.916, -156.5, -80.013, -95.257, -41.642, -41.900, 47.392, 29, -0.35791, -0.60434, 0.46277, -0.54074,
 11:23:27.230,e8:9e:2c:53:09:e3, 2024-07-06 21:57:32:105, 0.969, -0.047, -0.18, 2.197, 0.671, 0.916, -156.275, -80.008, -95.828, -41.700, -41.742, 47.400, 29, -0.35791, -0.60434, 0.46277, -0.54074,
 11:23:27.349,e8:9e:2c:53:09:e3, 2024-07-06 21:57:32:205, 0.969, -0.043, -0.182, 1.648, 0.244, 0.916, -156.182, -79.953, -96.235, -41.700, -41.742, 47.400, 29, -0.36234, -0.59937, 0.46951, -0.53751,
 11:23:27.424,e8:9e:2c:53:09:e3, 2024-07-06 21:57:32:305, 0.97, -0.048, -0.184, 0.732, 0.122, 1.587, -156.006, -79.86, -96.872, -41.700, -41.742, 47.400, 29, -0.36234, -0.59937, 0.46951, -0.53751,
 11:23:27.544,e8:9e:2c:53:09:e3, 2024-07-06 21:57:32:405, 0.968, -0.047, -0.193, -0.305, 0.549, 1.648, -155.781, -79.761, -97.646, -41.625, -41.583, 47.617, 29, -0.36823, -0.59277, 0.47919, -0.53223,
 11:23:27.650,e8:9e:2c:53:09:e3, 2024-07-06 21:57:32:505, 0.97, -0.05, -0.186, -0.732, 1.099, 1.099, -155.577, -79.739, -98.558, -41.625, -41.583, 47.617, 29, -0.36823, -0.59277, 0.47919, -0.53223,
 11:23:27.755,e8:9e:2c:53:09:e3, 2024-07-06 21:57:32:605, 0.968, -0.049, -0.187, 1.404, 1.16, 0.244, -155.511, -79.761, -99.163, -41.625, -41.583, 47.617, 29, -0.36823, -0.59277, 0.47919, -0.53223,
 11:23:27.829,e8:9e:2c:53:09:e3, 2024-07-06 21:57:32:705, 0.968, -0.048, -0.185, 1.526, 1.587, -0.305, -155.676, -79.838, -99.36, -41.792, -41.808, 47.317, 29, -0.36823, -0.59277, 0.47919, -0.53223,
 11:23:27.950,e8:9e:2c:53:09:e3, 2024-07-06 21:57:32:805, 0.97, -0.044, -0.181, 1.892, 1.465, -0.427, -155.94, -79.942, -99.448, -41.792, -41.808, 47.317, 29, -0.37576, -0.58685, 0.48514, -0.52814,
 11:23:28.038,e8:9e:2c:53:09:e3, 2024-07-06 21:57:32:905, 0.972, -0.044, -0.18, 1.892, 0.427, 0.549, -156.132, -79.975, -99.591, -41.792, -41.808, 47.317, 29, -0.37576, -0.58685, 0.48514, -0.52814,
 11:23:28.160,e8:9e:2c:53:09:e3, 2024-07-06 21:57:33:005, 0.965, -0.05, -0.186, 1.16, 0.732, 0.427, -156.154, -79.931, -99.959, -41.758, -41.842, 47.108, 29, -0.38156, -0.58206, 0.49084, -0.52399,
 11:23:28.233,e8:9e:2c:53:09:e3, 2024-07-06 21:57:33:105, 0.97, -0.045, -0.182, 0.732, 1.465, 0.671, -156.226, -79.964, -100.377, -41.758, -41.842, 47.108, 29, -0.38156, -0.58206, 0.49084, -0.52399,
 11:23:28.356,e8:9e:2c:53:09:e3, 2024-07-06 21:57:33:205, 0.968, -0.045, -0.186, 1.709, 1.465, 0.549, -156.077, -80.002, -100.887, -41.758, -41.842, 47.108, 29, -0.38156, -0.58206, 0.49084, -0.52399,
 11:23:28.445,e8:9e:2c:53:09:e3, 2024-07-06 21:57:33:305, 0.969, -0.043, -0.179, 1.953, 1.038, 1.099, -155.852, -80.041, -101.475, -41.817, -41.842, 47.183, 29, -0.38156, -0.58206, 0.49084, -0.52399,
 11:23:28.565,e8:9e:2c:53:09:e3, 2024-07-06 21:57:33:405, 0.968, -0.038, -0.185, -0.671, 0.793, 1.709, -155.577, -79.986, -102.162, -41.817, -41.842, 47.183, 29, -0.38681, -0.57626, 0.49701, -0.52075,
 11:23:28.640,e8:9e:2c:53:09:e3, 2024-07-06 21:57:33:505, 0.968, -0.046, -0.18, -3.479, 0.854, 1.648, -155.468, -79.931, -103.107, -41.817, -41.842, 47.183, 29, -0.38681, -0.57626, 0.49701, -0.52075,
 11:23:28.759,e8:9e:2c:53:09:e3, 2024-07-06 21:57:33:605, 0.97, -0.055, -0.181, -1.404, 1.221, 0.854, -155.429, -79.931, -103.942, -42.008, -42.292, 46.758, 29, -0.39584, -0.56702, 0.50754, -0.51389,
 11:23:28.834,e8:9e:2c:53:09:e3, 2024-07-06 21:57:33:705, 0.966, -0.046, -0.181, 0.732, 1.587, 1.038, -155.215, -79.975, -104.727, -42.008, -42.292, 46.758, 29, -0.39584, -0.56702, 0.50754, -0.51389,
 11:23:28.954,e8:9e:2c:53:09:e3, 2024-07-06 21:57:33:805, 0.968, -0.049, -0.176, 1.099, 1.404, 1.343, -154.709, -80.008, -105.727, -42.008, -42.292, 46.758, 29, -0.39584, -0.56702, 0.50754, -0.51389,
 11:23:29.059,e8:9e:2c:53:09:e3, 2024-07-06 21:57:33:905, 0.97, -0.048, -0.179, 2.075, -0.854, 1.648, -154.429, -79.909, -106.403, -42.050, -42.217, 46.650, 29, -0.39584, -0.56702, 0.50754, -0.51389,
 11:23:29.165,e8:9e:2c:53:09:e3, 2024-07-06 21:57:34:005, 0.965, -0.057, -0.192, 0.977, -1.465, 2.136, -154.358, -79.623, -106.908, -42.050, -42.217, 46.650, 29, -0.40002, -0.56027, 0.51672, -0.50888,
 11:23:29.253,e8:9e:2c:53:09:e3, 2024-07-06 21:57:34:105, 0.973, -0.063, -0.189, 3.723, 2.197, -1.099, -154.44, -79.557, -107.095, -42.050, -42.217, 46.650, 29, -0.40002, -0.56027, 0.51672, -0.50888,
 11:23:29.359,e8:9e:2c:53:09:e3, 2024-07-06 21:57:34:205, 0.969, -0.021, -0.175, 0.122, 2.991, -0.488, -154.715, -79.816, -107.056, -41.833, -42.092, 46.942, 29, -0.40582, -0.55566, 0.51987, -0.50613,
 11:23:29.449,e8:9e:2c:53:09:e3, 2024-07-06 21:57:34:305, 0.97, -0.044, -0.183, 0.671, 1.221, 1.465, -154.451, -79.915, -107.831, -41.833, -42.092, 46.942, 29, -0.40582, -0.55566, 0.51987, -0.50613,
 11:23:29.569,e8:9e:2c:53:09:e3, 2024-07-06 21:57:34:405, 0.968, -0.056, -0.179, 0, 0.305, 2.136, -153.918, -79.854, -108.979, -41.833, -42.092, 46.942, 29, -0.40582, -0.55566, 0.51987, -0.50613,
 11:23:29.644,e8:9e:2c:53:09:e3, 2024-07-06 21:57:34:505, 0.97, -0.054, -0.178, -0.732, -1.099, 1.587, -153.875, -79.711, -109.611, -41.925, -41.975, 46.867, 29, -0.40582, -0.55566, 0.51987, -0.50613,
 11:23:29.764,e8:9e:2c:53:09:e3, 2024-07-06 21:57:34:605, 0.966, -0.053, -0.19, 0.61, -1.282, 0.61, -154.352, -79.497, -109.644, -41.925, -41.975, 46.867, 29, -0.41122, -0.54794, 0.5307, -0.49887,
 11:23:29.838,e8:9e:2c:53:09:e3, 2024-07-06 21:57:34:705, 0.965, -0.058, -0.188, 1.77, 1.831, -0.793, -154.622, -79.475, -109.814, -41.925, -41.975, 46.867, 29, -0.41122, -0.54794, 0.5307, -0.49887,
 11:23:29.974,e8:9e:2c:53:09:e3, 2024-07-06 21:57:34:805, 0.969, -0.046, -0.183, 1.465, 1.587, -0.061, -154.951, -79.612, -109.781, -41.917, -42.292, 46.842, 29, -0.41611, -0.54401, 0.53452, -0.49506,
 11:23:30.048,e8:9e:2c:53:09:e3, 2024-07-06 21:57:34:905, 0.969, -0.056, -0.191, 3.54, 0.122, 0.122, -154.951, -79.585, -110.001, -41.917, -42.292, 46.842, 29, -0.41611, -0.54401, 0.53452, -0.49506,
 11:23:30.169,e8:9e:2c:53:09:e3, 2024-07-06 21:57:35:005, 0.968, -0.052, -0.188, 1.526, 1.465, 0.183, -155.176, -79.618, -110.045, -41.917, -42.292, 46.842, 29, -0.41611, -0.54401, 0.53452, -0.49506,
 11:23:30.245,e8:9e:2c:53:09:e3, 2024-07-06 21:57:35:105, 0.968, -0.051, -0.188, 3.113, 1.526, -0.427, -155.198, -79.689, -110.22, -41.808, -42.000, 47.367, 29, -0.41611, -0.54401, 0.53452, -0.49506,
 11:23:30.365,e8:9e:2c:53:09:e3, 2024-07-06 21:57:35:205, 0.966, -0.045, -0.181, 3.052, 1.709, -0.732, -155.44, -79.81, -110.176, -41.808, -42.000, 47.367, 29, -0.42065, -0.54083, 0.53653, -0.49249,
 11:23:30.453,e8:9e:2c:53:09:e3, 2024-07-06 21:57:35:305, 0.971, -0.045, -0.18, -0.61, 1.16, 1.953, -155.424, -79.849, -110.665, -41.808, -42.000, 47.367, 29, -0.42065, -0.54083, 0.53653, -0.49249,
 11:23:30.574,e8:9e:2c:53:09:e3, 2024-07-06 21:57:35:405, 0.968, -0.052, -0.187, 0.854, 1.038, 1.282, -155.017, -79.794, -111.594, -41.908, -41.783, 47.242, 29, -0.42587, -0.53424, 0.54263, -0.48849,
 11:23:30.649,e8:9e:2c:53:09:e3, 2024-07-06 21:57:35:505, 0.971, -0.049, -0.183, 1.892, 1.953, 0.854, -154.693, -79.849, -112.308, -41.908, -41.783, 47.242, 29, -0.42587, -0.53424, 0.54263, -0.48849,
 11:23:30.783,e8:9e:2c:53:09:e3, 2024-07-06 21:57:35:605, 0.969, -0.051, -0.186, 0.671, 2.258, 1.282, -154.1, -79.898, -113.329, -41.908, -41.783, 47.242, 29, -0.42587, -0.53424, 0.54263, -0.48849,
 11:23:30.860,e8:9e:2c:53:09:e3, 2024-07-06 21:57:35:705, 0.968, -0.046, -0.181, 0.244, 2.502, -0.183, -153.962, -80.046, -113.994, -42.208, -41.800, 46.958, 29, -0.42587, -0.53424, 0.54263, -0.48849,
 11:23:30.980,e8:9e:2c:53:09:e3, 2024-07-06 21:57:35:805, 0.971, -0.042, -0.172, -1.77, -0.366, 1.892, -154.006, -80.063, -114.483, -42.208, -41.800, 46.958, 29, -0.43378, -0.52545, 0.54892, -0.48404,
 11:23:31.075,e8:9e:2c:53:09:e3, 2024-07-06 21:57:35:905, 0.969, -0.055, -0.189, -2.38, -2.502, 2.258, -154.05, -79.761, -115.126, -42.208, -41.800, 46.958, 29, -0.43378, -0.52545, 0.54892, -0.48404,
 11:23:31.175,e8:9e:2c:53:09:e3, 2024-07-06 21:57:36:005, 0.967, -0.055, -0.193, -2.502, -0.488, 1.221, -154.44, -79.47, -115.516, -41.967, -42.358, 47.092, 29, -0.43378, -0.52545, 0.54892, -0.48404,
 11:23:31.248,e8:9e:2c:53:09:e3, 2024-07-06 21:57:36:105, 0.967, -0.055, -0.19, 0.427, 0.732, 0.183, -154.759, -79.415, -115.862, -41.967, -42.358, 47.092, 29, -0.43884, -0.51706, 0.5618, -0.47363,
 11:23:31.385,e8:9e:2c:53:09:e3, 2024-07-06 21:57:36:205, 0.967, -0.05, -0.189, 1.587, 1.465, -0.427, -155.067, -79.464, -115.966, -41.967, -42.358, 47.092, 29, -0.43884, -0.51706, 0.5618, -0.47363,
 11:23:31.474,e8:9e:2c:53:09:e3, 2024-07-06 21:57:36:305, 0.97, -0.05, -0.187, 1.526, 1.465, -0.366, -155.385, -79.563, -116.027, -41.767, -42.575, 47.033, 29, -0.43884, -0.51706, 0.5618, -0.47363,
 11:23:31.579,e8:9e:2c:53:09:e3, 2024-07-06 21:57:36:405, 0.97, -0.047, -0.188, 2.197, 1.343, 0, -155.599, -79.634, -116.153, -41.767, -42.575, 47.033, 29, -0.44547, -0.51172, 0.56567, -0.46863,
 11:23:31.654,e8:9e:2c:53:09:e3, 2024-07-06 21:57:36:505, 0.968, -0.044, -0.186, 1.343, 1.404, 0.183, -155.698, -79.706, -116.483, -41.767, -42.575, 47.033, 29, -0.44547, -0.51172, 0.56567, -0.46863,
 11:23:31.788,e8:9e:2c:53:09:e3, 2024-07-06 21:57:36:605, 0.968, -0.043, -0.189, -0.488, 1.16, 0.488, -155.83, -79.75, -116.889, -41.775, -42.942, 46.492, 29, -0.45218, -0.50504, 0.57086, -0.4631,
 11:23:31.865,e8:9e:2c:53:09:e3, 2024-07-06 21:57:36:705, 0.968, -0.043, -0.185, -0.183, 1.465, 0, -156.116, -79.805, -117.175, -41.775, -42.942, 46.492, 29, -0.45218, -0.50504, 0.57086, -0.4631,
 11:23:31.985,e8:9e:2c:53:09:e3, 2024-07-06 21:57:36:805, 0.967, -0.042, -0.187, 1.099, 0.977, 0.122, -156.401, -79.849, -117.328, -41.775, -42.942, 46.492, 29, -0.45218, -0.50504, 0.57086, -0.4631,
 11:23:32.089,e8:9e:2c:53:09:e3, 2024-07-06 21:57:36:905, 0.97, -0.04, -0.185, 1.404, 1.038, 0.122, -156.588, -79.882, -117.581, -41.925, -43.183, 46.492, 29, -0.45218, -0.50504, 0.57086, -0.4631,
 11:23:32.193,e8:9e:2c:53:09:e3, 2024-07-06 21:57:37:005, 0.969, -0.045, -0.185, 3.296, 1.282, -0.305, -156.813, -79.926, -117.773, -41.925, -43.183, 46.492, 29, -0.45889, -0.49857, 0.57605, -0.45706,
 11:23:32.269,e8:9e:2c:53:09:e3, 2024-07-06 21:57:37:105, 0.971, -0.027, -0.183, 2.441, 1.282, -0.122, -157.198, -80.002, -117.455, -41.925, -43.183, 46.492, 29, -0.45889, -0.49857, 0.57605, -0.45706,
 11:23:32.389,e8:9e:2c:53:09:e3, 2024-07-06 21:57:37:205, 0.969, -0.044, -0.184, 0.854, 0.793, 0.916, -157.039, -80.002, -118.098, -41.842, -43.158, 46.658, 29, -0.46332, -0.49393, 0.57956, -0.45316,
 11:23:32.465,e8:9e:2c:53:09:e3, 2024-07-06 21:57:37:305, 0.969, -0.041, -0.183, 0.366, 1.038, 0.671, -157.088, -80.008, -118.575, -41.842, -43.158, 46.658, 29, -0.46332, -0.49393, 0.57956, -0.45316,
 11:23:32.584,e8:9e:2c:53:09:e3, 2024-07-06 21:57:37:405, 0.97, -0.042, -0.182, 0.244, 0.732, 0.916, -157.148, -80.002, -119.07, -41.842, -43.158, 46.658, 29, -0.46332, -0.49393, 0.57956, -0.45316,
 11:23:32.675,e8:9e:2c:53:09:e3, 2024-07-06 21:57:37:505, 0.969, -0.043, -0.182, 0.244, 1.16, 0, -157.335, -80.024, -119.394, -41.842, -43.358, 46.275, 29, -0.46332, -0.49393, 0.57956, -0.45316,
 11:23:32.808,e8:9e:2c:53:09:e3, 2024-07-06 21:57:37:605, 0.971, -0.04, -0.181, 1.221, 1.282, 0.122, -157.626, -80.079, -119.559, -41.842, -43.358, 46.275, 29, -0.47049, -0.4859, 0.58606, -0.44604,
 11:23:32.869,e8:9e:2c:53:09:e3, 2024-07-06 21:57:37:705, 0.97, -0.036, -0.183, 0.854, 1.526, 0.183, -157.83, -80.14, -119.762, -41.842, -43.358, 46.275, 29, -0.47049, -0.4859, 0.58606, -0.44604,
 11:23:32.989,e8:9e:2c:53:09:e3, 2024-07-06 21:57:37:805, 0.972, -0.035, -0.178, 0.977, 1.343, 0.671, -157.868, -80.206, -120.212, -42.117, -43.508, 46.200, 29, -0.47607, -0.47971, 0.59024, -0.44128,
 11:23:33.064,e8:9e:2c:53:09:e3, 2024-07-06 21:57:37:905, 0.97, -0.039, -0.179, 1.77, 1.16, 0.671, -157.72, -80.239, -120.784, -42.117, -43.508, 46.200, 29, -0.47607, -0.47971, 0.59024, -0.44128,
 11:23:33.198,e8:9e:2c:53:09:e3, 2024-07-06 21:57:38:005, 0.969, -0.036, -0.179, 2.014, 0.916, 0.793, -157.61, -80.255, -121.289, -42.117, -43.508, 46.200, 29, -0.47607, -0.47971, 0.59024, -0.44128,
 11:23:33.274,e8:9e:2c:53:09:e3, 2024-07-06 21:57:38:105, 0.969, -0.039, -0.177, 1.343, 0.977, 1.038, -157.39, -80.255, -121.921, -42.075, -43.400, 46.242, 29, -0.47607, -0.47971, 0.59024, -0.44128,
 11:23:33.410,e8:9e:2c:53:09:e3, 2024-07-06 21:57:38:205, 0.971, -0.041, -0.176, 2.075, 0.366, 1.648, -157.017, -80.211, -122.695, -42.075, -43.400, 46.242, 29, -0.48083, -0.4722, 0.59598, -0.43649,
 11:23:33.468,e8:9e:2c:53:09:e3, 2024-07-06 21:57:38:305, 0.97, -0.041, -0.184, 0.61, 0.427, 1.77, -156.555, -80.107, -123.53, -42.075, -43.400, 46.242, 29, -0.48083, -0.4722, 0.59598, -0.43649,
 11:23:33.589,e8:9e:2c:53:09:e3, 2024-07-06 21:57:38:405, 0.97, -0.042, -0.185, 1.648, 1.221, 0.305, -156.396, -80.074, -124.124, -42.050, -43.150, 46.417, 29, -0.48428, -0.4657, 0.60147, -0.4321,
 11:23:33.679,e8:9e:2c:53:09:e3, 2024-07-06 21:57:38:505, 0.969, -0.041, -0.179, 1.587, 1.038, 0.671, -156.396, -80.112, -124.525, -42.050, -43.150, 46.417, 29, -0.48428, -0.4657, 0.60147, -0.4321,
 11:23:33.798,e8:9e:2c:53:09:e3, 2024-07-06 21:57:38:605, 0.97, -0.042, -0.183, 1.099, 0.977, 0.854, -156.324, -80.112, -124.997, -42.050, -43.150, 46.417, 29, -0.48428, -0.4657, 0.60147, -0.4321,
 11:23:33.873,e8:9e:2c:53:09:e3, 2024-07-06 21:57:38:705, 0.97, -0.043, -0.181, 1.343, 0.854, 0.549, -156.259, -80.112, -125.519, -42.133, -43.150, 46.075, 29, -0.48428, -0.4657, 0.60147, -0.4321,
 11:23:33.995,e8:9e:2c:53:09:e3, 2024-07-06 21:57:38:805, 0.971, -0.043, -0.181, 1.404, 0.916, 0.549, -156.27, -80.112, -125.931, -42.133, -43.150, 46.075, 29, -0.48929, -0.4585, 0.60687, -0.42657,
 11:23:34.069,e8:9e:2c:53:09:e3, 2024-07-06 21:57:38:905, 0.97, -0.043, -0.181, 1.587, 0.977, 0.732, -156.209, -80.123, -126.409, -42.133, -43.150, 46.075, 29, -0.48929, -0.4585, 0.60687, -0.42657,
 11:23:34.204,e8:9e:2c:53:09:e3, 2024-07-06 21:57:39:005, 0.972, -0.042, -0.179, 1.221, 1.465, 0.732, -156.039, -80.162, -126.991, -42.092, -43.267, 46.142, 29, -0.49414, -0.45142, 0.61157, -0.42181,
 11:23:34.279,e8:9e:2c:53:09:e3, 2024-07-06 21:57:39:105, 0.97, -0.045, -0.178, 1.282, 1.038, 0.854, -155.825, -80.173, -127.634, -42.092, -43.267, 46.142, 29, -0.49414, -0.45142, 0.61157, -0.42181,
 11:23:34.399,e8:9e:2c:53:09:e3, 2024-07-06 21:57:39:205, 0.97, -0.043, -0.178, 0.793, 0.977, 0.732, -155.709, -80.178, -128.188, -42.092, -43.267, 46.142, 29, -0.49414, -0.45142, 0.61157, -0.42181,
 11:23:34.475,e8:9e:2c:53:09:e3, 2024-07-06 21:57:39:305, 0.97, -0.043, -0.177, 1.099, 0.977, 0.61, -155.698, -80.189, -128.628, -42.242, -43.175, 46.283, 29, -0.49414, -0.45142, 0.61157, -0.42181,
 11:23:34.593,e8:9e:2c:53:09:e3, 2024-07-06 21:57:39:405, 0.971, -0.045, -0.177, 0.854, 1.465, 0.732, -155.561, -80.222, -129.221, -42.242, -43.175, 46.283, 29, -0.49945, -0.44363, 0.61679, -0.41617,
 11:23:34.685,e8:9e:2c:53:09:e3, 2024-07-06 21:57:39:505, 0.971, -0.045, -0.176, 1.099, 0.977, 0.916, -155.369, -80.244, -129.875, -42.242, -43.175, 46.283, 29, -0.49945, -0.44363, 0.61679, -0.41617,
 11:23:34.804,e8:9e:2c:53:09:e3, 2024-07-06 21:57:39:605, 0.97, -0.044, -0.178, 1.343, 0.732, 0.427, -155.325, -80.239, -130.342, -42.308, -43.133, 46.083, 29, -0.50363, -0.43732, 0.62103, -0.41144,
 11:23:34.893,e8:9e:2c:53:09:e3, 2024-07-06 21:57:39:705, 0.97, -0.042, -0.178, 1.892, 1.099, 0.244, -155.446, -80.255, -130.583, -42.308, -43.133, 46.083, 29, -0.50363, -0.43732, 0.62103, -0.41144,
 11:23:34.999,e8:9e:2c:53:09:e3, 2024-07-06 21:57:39:805, 0.972, -0.041, -0.178, 1.648, 1.282, 1.038, -155.325, -80.283, -131.094, -42.308, -43.133, 46.083, 29, -0.50363, -0.43732, 0.62103, -0.41144,
 11:23:35.075,e8:9e:2c:53:09:e3, 2024-07-06 21:57:39:905, 0.97, -0.046, -0.173, 0.183, 0.916, 1.709, -154.869, -80.283, -132.05, -42.367, -43.025, 46.000, 29, -0.50363, -0.43732, 0.62103, -0.41144,
 11:23:35.209,e8:9e:2c:53:09:e3, 2024-07-06 21:57:40:005, 0.971, -0.051, -0.177, 0.427, 0.793, 1.221, -154.534, -80.233, -132.94, -42.367, -43.025, 46.000, 29, -0.50912, -0.42764, 0.62741, -0.40518,
 11:23:35.283,e8:9e:2c:53:09:e3, 2024-07-06 21:57:40:105, 0.974, -0.046, -0.177, 1.587, 1.282, -0.122, -154.633, -80.25, -133.253, -42.367, -43.025, 46.000, 29, -0.50912, -0.42764, 0.62741, -0.40518,
 11:23:35.403,e8:9e:2c:53:09:e3, 2024-07-06 21:57:40:205, 0.969, -0.048, -0.175, 2.441, 1.343, -0.122, -154.814, -80.321, -133.407, -42.458, -43.075, 45.992, 29, -0.51324, -0.42313, 0.6297, -0.40112,
 11:23:35.479,e8:9e:2c:53:09:e3, 2024-07-06 21:57:40:305, 0.974, -0.042, -0.168, 3.113, 0.671, 0.305, -154.907, -80.392, -133.555, -42.458, -43.075, 45.992, 29, -0.51324, -0.42313, 0.6297, -0.40112,
 11:23:35.615,e8:9e:2c:53:09:e3, 2024-07-06 21:57:40:405, 0.969, -0.047, -0.183, 1.953, -0.244, -0.122, -155.198, -80.31, -133.522, -42.458, -43.075, 45.992, 29, -0.51324, -0.42313, 0.6297, -0.40112,
 11:23:35.690,e8:9e:2c:53:09:e3, 2024-07-06 21:57:40:505, 0.973, -0.044, -0.175, -0.305, 0.61, 0.366, -155.632, -80.299, -133.638, -42.292, -43.150, 46.142, 29, -0.51324, -0.42313, 0.6297, -0.40112,
 11:23:35.809,e8:9e:2c:53:09:e3, 2024-07-06 21:57:40:605, 0.968, -0.046, -0.186, 2.441, 1.465, -0.793, -155.978, -80.299, -133.654, -42.292, -43.150, 46.142, 29, -0.51727, -0.41745, 0.63449, -0.39429,
 11:23:35.883,e8:9e:2c:53:09:e3, 2024-07-06 21:57:40:705, 0.973, -0.034, -0.165, 1.831, 1.831, -0.366, -156.396, -80.486, -133.577, -42.292, -43.150, 46.142, 29, -0.51727, -0.41745, 0.63449, -0.39429,
 11:23:36.005,e8:9e:2c:53:09:e3, 2024-07-06 21:57:40:805, 0.968, -0.04, -0.179, 0.488, -0.183, 0.671, -156.583, -80.447, -133.83, -42.183, -43.158, 46.208, 29, -0.52237, -0.41125, 0.63828, -0.38794,
 11:23:36.094,e8:9e:2c:53:09:e3, 2024-07-06 21:57:40:905, 0.976, -0.043, -0.175, 0.977, 0.427, 0.488, -156.852, -80.398, -134.154, -42.183, -43.158, 46.208, 29, -0.52237, -0.41125, 0.63828, -0.38794,
 11:23:36.215,e8:9e:2c:53:09:e3, 2024-07-06 21:57:41:005, 0.968, -0.046, -0.184, 3.479, 0.916, 0.366, -156.78, -80.37, -134.522, -42.183, -43.158, 46.208, 29, -0.52237, -0.41125, 0.63828, -0.38794,
 11:23:36.289,e8:9e:2c:53:09:e3, 2024-07-06 21:57:41:105, 0.974, -0.032, -0.168, 0.977, 2.075, 0.61, -156.714, -80.497, -134.896, -42.367, -43.033, 46.183, 29, -0.52237, -0.41125, 0.63828, -0.38794,
 11:23:36.409,e8:9e:2c:53:09:e3, 2024-07-06 21:57:41:205, 0.973, -0.045, -0.178, 0.061, 0, 1.099, -156.55, -80.431, -135.643, -42.367, -43.033, 46.183, 29, -0.52664, -0.40414, 0.64243, -0.38272,
 11:23:36.499,e8:9e:2c:53:09:e3, 2024-07-06 21:57:41:305, 0.973, -0.041, -0.177, 0.488, 0.61, 0.305, -156.819, -80.398, -135.89, -42.367, -43.033, 46.183, 29, -0.52664, -0.40414, 0.64243, -0.38272,
 11:23:36.618,e8:9e:2c:53:09:e3, 2024-07-06 21:57:41:405, 0.971, -0.042, -0.181, 1.099, 1.648, 0.244, -156.89, -80.42, -136.274, -42.217, -43.317, 46.208, 29, -0.53177, -0.39645, 0.64709, -0.37573,
 11:23:36.694,e8:9e:2c:53:09:e3, 2024-07-06 21:57:41:505, 0.972, -0.042, -0.169, 1.343, 1.526, -0.305, -157.05, -80.53, -136.642, -42.217, -43.317, 46.208, 29, -0.53177, -0.39645, 0.64709, -0.37573,
 11:23:36.813,e8:9e:2c:53:09:e3, 2024-07-06 21:57:41:605, 0.973, -0.039, -0.175, 2.197, 0.732, -0.244, -157.357, -80.579, -136.653, -42.217, -43.317, 46.208, 29, -0.53177, -0.39645, 0.64709, -0.37573,
 11:23:36.905,e8:9e:2c:53:09:e3, 2024-07-06 21:57:41:705, 0.971, -0.03, -0.176, -0.366, 1.282, 0.61, -157.687, -80.618, -136.725, -42.375, -43.583, 46.225, 29, -0.53177, -0.39645, 0.64709, -0.37573,
 11:23:37.025,e8:9e:2c:53:09:e3, 2024-07-06 21:57:41:805, 0.972, -0.041, -0.174, 1.16, 0.366, 1.831, -157.368, -80.585, -137.681, -42.375, -43.583, 46.225, 28.97, -0.53729, -0.38843, 0.65155, -0.36853,
 11:23:37.099,e8:9e:2c:53:09:e3, 2024-07-06 21:57:41:905, 0.971, -0.042, -0.173, 1.221, 1.221, 1.099, -156.929, -80.535, -138.571, -42.375, -43.583, 46.225, 28.97, -0.53729, -0.38843, 0.65155, -0.36853,
 11:23:37.219,e8:9e:2c:53:09:e3, 2024-07-06 21:57:42:005, 0.971, -0.037, -0.172, 2.136, 0.793, 0.977, -156.687, -80.541, -139.208, -42.375, -43.583, 46.225, 28.97, -0.53729, -0.38843, 0.65155, -0.36853,
 11:23:37.295,e8:9e:2c:53:09:e3, 2024-07-06 21:57:42:105, 0.971, -0.044, -0.173, 2.991, 0.61, 0.854, -156.385, -80.502, -139.856, -42.425, -43.200, 46.125, 28.97, -0.53729, -0.38843, 0.65155, -0.36853,
 11:23:37.414,e8:9e:2c:53:09:e3, 2024-07-06 21:57:42:205, 0.971, -0.04, -0.173, 2.869, 0.854, 0.122, -156.445, -80.508, -139.955, -42.425, -43.200, 46.125, 28.97, -0.54099, -0.3797, 0.65677, -0.36292,
 11:23:37.504,e8:9e:2c:53:09:e3, 2024-07-06 21:57:42:305, 0.971, -0.042, -0.175, 1.282, 0.305, 1.16, -156.39, -80.469, -140.339, -42.425, -43.200, 46.125, 28.97, -0.54099, -0.3797, 0.65677, -0.36292,
 11:23:37.623,e8:9e:2c:53:09:e3, 2024-07-06 21:57:42:405, 0.972, -0.043, -0.177, -0.854, 0.916, 0.977, -156.357, -80.431, -140.982, -42.233, -43.175, 46.250, 28.97, -0.5448, -0.37186, 0.66165, -0.35638,
 11:23:37.699,e8:9e:2c:53:09:e3, 2024-07-06 21:57:42:505, 0.969, -0.044, -0.173, 0.061, 0.977, 0.366, -156.473, -80.442, -141.476, -42.233, -43.175, 46.250, 28.97, -0.5448, -0.37186, 0.66165, -0.35638,
 11:23:37.820,e8:9e:2c:53:09:e3, 2024-07-06 21:57:42:605, 0.97, -0.039, -0.173, 1.038, 0.977, 0.183, -156.736, -80.464, -141.652, -42.233, -43.175, 46.250, 28.97, -0.5448, -0.37186, 0.66165, -0.35638,
 11:23:37.910,e8:9e:2c:53:09:e3, 2024-07-06 21:57:42:705, 0.971, -0.036, -0.176, 0.793, 0.549, 1.099, -156.775, -80.447, -142.042, -42.225, -43.433, 46.242, 28.97, -0.5448, -0.37186, 0.66165, -0.35638,
 11:23:38.029,e8:9e:2c:53:09:e3, 2024-07-06 21:57:42:805, 0.969, -0.041, -0.178, 2.075, 0.427, 0.793, -156.638, -80.392, -142.592, -42.225, -43.433, 46.242, 28.97, -0.54904, -0.36368, 0.6665, -0.34918,
 11:23:38.103,e8:9e:2c:53:09:e3, 2024-07-06 21:57:42:905, 0.968, -0.038, -0.178, 2.258, 0.488, 0.793, -156.583, -80.354, -142.987, -42.225, -43.433, 46.242, 28.97, -0.54904, -0.36368, 0.6665, -0.34918,
 11:23:38.223,e8:9e:2c:53:09:e3, 2024-07-06 21:57:43:005, 0.969, -0.044, -0.179, 2.38, 0.427, 0.61, -156.462, -80.305, -143.454, -42.267, -43.108, 46.350, 28.97, -0.55157, -0.3576, 0.67032, -0.34415,
 11:23:38.330,e8:9e:2c:53:09:e3, 2024-07-06 21:57:43:105, 0.97, -0.042, -0.174, 0.854, 0.488, 0.977, -156.588, -80.299, -143.795, -42.267, -43.108, 46.350, 28.97, -0.55157, -0.3576, 0.67032, -0.34415,
 11:23:38.419,e8:9e:2c:53:09:e3, 2024-07-06 21:57:43:205, 0.971, -0.045, -0.178, 1.465, 0.732, 0.488, -156.5, -80.25, -144.294, -42.075, -43.108, 46.417, 28.97, -0.55157, -0.3576, 0.67032, -0.34415,
 11:23:38.510,e8:9e:2c:53:09:e3, 2024-07-06 21:57:43:305, 0.97, -0.042, -0.177, 0.366, 0.671, 0.854, -156.594, -80.244, -144.684, -42.075, -43.108, 46.417, 28.97, -0.55447, -0.35117, 0.67407, -0.33878,
 11:23:38.628,e8:9e:2c:53:09:e3, 2024-07-06 21:57:43:405, 0.97, -0.043, -0.18, 0.549, 0.122, 1.16, -156.566, -80.195, -145.223, -42.075, -43.108, 46.417, 28.97, -0.55447, -0.35117, 0.67407, -0.33878,
 11:23:38.705,e8:9e:2c:53:09:e3, 2024-07-06 21:57:43:505, 0.971, -0.045, -0.18, 1.16, 0.366, 0.854, -156.566, -80.129, -145.695, -42.025, -43.142, 46.267, 28.97, -0.55447, -0.35117, 0.67407, -0.33878,
 11:23:38.825,e8:9e:2c:53:09:e3, 2024-07-06 21:57:43:605, 0.97, -0.043, -0.183, 0.854, 0.61, 0.793, -156.61, -80.079, -146.074, -42.025, -43.142, 46.267, 28.97, -0.55728, -0.34338, 0.67902, -0.33218,
 11:23:38.914,e8:9e:2c:53:09:e3, 2024-07-06 21:57:43:705, 0.969, -0.044, -0.182, 1.282, 1.038, 0.366, -156.654, -80.068, -146.519, -42.025, -43.142, 46.267, 28.97, -0.55728, -0.34338, 0.67902, -0.33218,
 11:23:39.035,e8:9e:2c:53:09:e3, 2024-07-06 21:57:43:805, 0.969, -0.042, -0.181, 1.343, 1.282, 0.488, -156.676, -80.107, -146.92, -41.892, -43.325, 46.558, 28.97, -0.56104, -0.33624, 0.68231, -0.32635,
 11:23:39.123,e8:9e:2c:53:09:e3, 2024-07-06 21:57:43:905, 0.969, -0.042, -0.179, 1.587, 1.16, 0.671, -156.566, -80.134, -147.464, -41.892, -43.325, 46.558, 28.97, -0.56104, -0.33624, 0.68231, -0.32635,
 11:23:39.243,e8:9e:2c:53:09:e3, 2024-07-06 21:57:44:005, 0.971, -0.045, -0.18, 1.343, 1.099, 0.977, -156.39, -80.145, -148.063, -41.892, -43.325, 46.558, 28.97, -0.56104, -0.33624, 0.68231, -0.32635,
 11:23:39.321,e8:9e:2c:53:09:e3, 2024-07-06 21:57:44:105, 0.971, -0.044, -0.181, 0.977, 1.343, 0.183, -156.335, -80.173, -148.541, -42.108, -43.275, 46.408, 28.97, -0.56104, -0.33624, 0.68231, -0.32635,
 11:23:39.440,e8:9e:2c:53:09:e3, 2024-07-06 21:57:44:205, 0.971, -0.041, -0.177, 1.282, 1.282, 0.305, -156.451, -80.233, -148.837, -42.108, -43.275, 46.408, 28.97, -0.56561, -0.32782, 0.68573, -0.31979,
 11:23:39.514,e8:9e:2c:53:09:e3, 2024-07-06 21:57:44:305, 0.971, -0.042, -0.178, 1.099, 1.221, 0.671, -156.423, -80.266, -149.304, -42.108, -43.275, 46.408, 28.97, -0.56561, -0.32782, 0.68573, -0.31979,
 11:23:39.634,e8:9e:2c:53:09:e3, 2024-07-06 21:57:44:405, 0.971, -0.042, -0.178, 1.343, 1.221, 0.732, -156.335, -80.288, -149.81, -42.142, -43.233, 46.558, 28.97, -0.5694, -0.32034, 0.68872, -0.31421,
 11:23:39.738,e8:9e:2c:53:09:e3, 2024-07-06 21:57:44:505, 0.971, -0.043, -0.176, 1.648, 1.099, 0.977, -156.11, -80.305, -150.452, -42.142, -43.233, 46.558, 28.97, -0.5694, -0.32034, 0.68872, -0.31421,
 11:23:39.830,e8:9e:2c:53:09:e3, 2024-07-06 21:57:44:605, 0.97, -0.042, -0.178, 1.099, 1.221, 0.854, -155.912, -80.316, -151.095, -42.233, -43.242, 46.150, 28.97, -0.5694, -0.32034, 0.68872, -0.31421,
 11:23:39.919,e8:9e:2c:53:09:e3, 2024-07-06 21:57:44:705, 0.973, -0.044, -0.176, 1.892, 1.038, 0.549, -155.781, -80.332, -151.628, -42.233, -43.242, 46.150, 28.97, -0.5723, -0.31393, 0.69131, -0.30969,
 11:23:40.039,e8:9e:2c:53:09:e3, 2024-07-06 21:57:44:805, 0.971, -0.046, -0.178, 2.563, 1.343, -0.366, -155.847, -80.376, -151.848, -42.233, -43.242, 46.150, 28.97, -0.5723, -0.31393, 0.69131, -0.30969,
 11:23:40.114,e8:9e:2c:53:09:e3, 2024-07-06 21:57:44:905, 0.973, -0.039, -0.17, 1.892, 1.221, 0.305, -156.039, -80.464, -151.963, -42.300, -42.992, 45.975, 28.97, -0.5723, -0.31393, 0.69131, -0.30969,
 11:23:40.249,e8:9e:2c:53:09:e3, 2024-07-06 21:57:45:005, 0.973, -0.044, -0.173, 2.991, -0.061, 1.16, -155.885, -80.431, -152.457, -42.300, -42.992, 45.975, 28.97, -0.57529, -0.30872, 0.69315, -0.30521,
 11:23:40.323,e8:9e:2c:53:09:e3, 2024-07-06 21:57:45:105, 0.971, -0.045, -0.177, 2.258, 0.671, 0.122, -155.847, -80.37, -152.732, -42.300, -42.992, 45.975, 28.97, -0.57529, -0.30872, 0.69315, -0.30521,
 11:23:40.445,e8:9e:2c:53:09:e3, 2024-07-06 21:57:45:205, 0.972, -0.04, -0.177, -0.061, 1.038, 1.221, -155.896, -80.37, -153.116, -42.142, -42.875, 46.425, 28.97, -0.57791, -0.30142, 0.69675, -0.29932,
 11:23:40.535,e8:9e:2c:53:09:e3, 2024-07-06 21:57:45:305, 0.971, -0.045, -0.178, -0.671, 1.282, 0.61, -155.797, -80.354, -153.858, -42.142, -42.875, 46.425, 28.97, -0.57791, -0.30142, 0.69675, -0.29932,
 11:23:40.654,e8:9e:2c:53:09:e3, 2024-07-06 21:57:45:405, 0.972, -0.042, -0.176, 0.671, 1.221, 0, -156.011, -80.414, -154.16, -42.142, -42.875, 46.425, 28.97, -0.57791, -0.30142, 0.69675, -0.29932,
 11:23:40.729,e8:9e:2c:53:09:e3, 2024-07-06 21:57:45:505, 0.968, -0.038, -0.177, 0.305, 0.793, 0.061, -156.418, -80.464, -154.265, -42.133, -43.225, 45.792, 28.97, -0.57791, -0.30142, 0.69675, -0.29932,
 11:23:40.849,e8:9e:2c:53:09:e3, 2024-07-06 21:57:45:605, 0.971, -0.041, -0.17, -1.038, 0.916, 0.916, -156.742, -80.475, -154.666, -42.133, -43.225, 45.792, 28.97, -0.58347, -0.29114, 0.70084, -0.289,
 11:23:40.925,e8:9e:2c:53:09:e3, 2024-07-06 21:57:45:705, 0.973, -0.041, -0.178, 0.427, 1.343, -0.549, -156.995, -80.497, -154.924, -42.133, -43.225, 45.792, 28.97, -0.58347, -0.29114, 0.70084, -0.289,
 11:23:41.045,e8:9e:2c:53:09:e3, 2024-07-06 21:57:45:805, 0.972, -0.036, -0.177, 2.258, 1.648, -1.648, -157.736, -80.612, -154.495, -42.117, -43.733, 45.533, 28.97, -0.58786, -0.28629, 0.70206, -0.28192,
 11:23:41.135,e8:9e:2c:53:09:e3, 2024-07-06 21:57:45:905, 0.973, -0.029, -0.168, 1.16, 1.587, -0.916, -158.604, -80.755, -153.94, -42.117, -43.733, 45.533, 28.97, -0.58786, -0.28629, 0.70206, -0.28192,
 11:23:41.270,e8:9e:2c:53:09:e3, 2024-07-06 21:57:46:005, 0.979, -0.03, -0.176, 0.183, 0.732, 0.427, -159.055, -80.799, -153.913, -42.117, -43.733, 45.533, 28.97, -0.58786, -0.28629, 0.70206, -0.28192,
 11:23:41.331,e8:9e:2c:53:09:e3, 2024-07-06 21:57:46:105, 0.97, -0.022, -0.184, -4.395, 1.221, 0.854, -159.423, -80.788, -154.204, -42.092, -44.342, 45.425, 28.97, -0.58786, -0.28629, 0.70206, -0.28192,
 11:23:41.449,e8:9e:2c:53:09:e3, 2024-07-06 21:57:46:205, 0.969, -0.033, -0.167, -0.61, 1.648, 0.183, -159.5, -80.821, -155.034, -42.092, -44.342, 45.425, 28.97, -0.59335, -0.27484, 0.70651, -0.27042,
 11:23:41.523,e8:9e:2c:53:09:e3, 2024-07-06 21:57:46:305, 0.968, -0.025, -0.167, 2.563, 2.563, -0.671, -159.785, -80.986, -155.11, -42.092, -44.342, 45.425, 28.97, -0.59335, -0.27484, 0.70651, -0.27042,
 11:23:41.645,e8:9e:2c:53:09:e3, 2024-07-06 21:57:46:405, 0.97, -0.022, -0.162, 4.883, 1.953, -0.671, -160.01, -81.167, -155.089, -42.333, -44.500, 45.192, 28.97, -0.59741, -0.27182, 0.70557, -0.267,
 11:23:41.735,e8:9e:2c:53:09:e3, 2024-07-06 21:57:46:505, 0.978, -0.021, -0.164, 4.944, 1.099, 0.671, -159.983, -81.227, -155.099, -42.333, -44.500, 45.192, 28.97, -0.59741, -0.27182, 0.70557, -0.267,
 11:23:41.853,e8:9e:2c:53:09:e3, 2024-07-06 21:57:46:605, 0.971, -0.032, -0.166, 4.517, 0.122, 0.793, -159.686, -81.194, -155.616, -42.333, -44.500, 45.192, 28.97, -0.59741, -0.27182, 0.70557, -0.267,
 11:23:41.929,e8:9e:2c:53:09:e3, 2024-07-06 21:57:46:705, 0.971, -0.031, -0.163, -0.549, -1.953, 5.066, -159.06, -81.019, -156.671, -42.125, -43.700, 45.842, 28.97, -0.59741, -0.27182, 0.70557, -0.267,
 11:23:42.048,e8:9e:2c:53:09:e3, 2024-07-06 21:57:46:805, 0.97, -0.035, -0.183, 1.77, 0, 3.479, -157.451, -80.645, -158.791, -42.125, -43.700, 45.842, 28.97, -0.59637, -0.26257, 0.71124, -0.26343,
 11:23:42.138,e8:9e:2c:53:09:e3, 2024-07-06 21:57:46:905, 0.972, -0.042, -0.172, 5.066, -0.916, 2.197, -156.379, -80.48, -160.247, -42.125, -43.700, 45.842, 28.97, -0.59637, -0.26257, 0.71124, -0.26343,
 11:23:42.258,e8:9e:2c:53:09:e3, 2024-07-06 21:57:47:005, 0.972, -0.044, -0.181, 6.042, -0.854, 2.075, -155.588, -80.25, -161.071, -42.125, -42.492, 46.575, 28.97, -0.59412, -0.25601, 0.71561, -0.26321,
 11:23:42.334,e8:9e:2c:53:09:e3, 2024-07-06 21:57:47:105, 0.981, -0.052, -0.18, 1.953, 0.183, 3.235, -154.644, -80.063, -162.197, -42.125, -42.492, 46.575, 28.97, -0.59412, -0.25601, 0.71561, -0.26321,
 11:23:42.453,e8:9e:2c:53:09:e3, 2024-07-06 21:57:47:205, 0.962, -0.073, -0.193, -10.071, 0.305, 3.967, -153.649, -79.871, -164.185, -42.125, -42.492, 46.575, 28.97, -0.59412, -0.25601, 0.71561, -0.26321,
 11:23:42.529,e8:9e:2c:53:09:e3, 2024-07-06 21:57:47:305, 0.968, -0.042, -0.181, -10.071, -1.709, 0.366, -154.512, -79.7, -164.647, -41.983, -43.117, 46.325, 28.97, -0.59412, -0.25601, 0.71561, -0.26321,
 11:23:42.665,e8:9e:2c:53:09:e3, 2024-07-06 21:57:47:405, 0.972, -0.038, -0.201, 0.916, -3.601, -5.31, -157.313, -79.437, -162.658, -41.983, -43.117, 46.325, 28.97, -0.59647, -0.23819, 0.72672, -0.24347,
 11:23:42.739,e8:9e:2c:53:09:e3, 2024-07-06 21:57:47:505, 0.969, -0.047, -0.177, -3.418, -2.686, -7.69, -161.653, -79.349, -158.994, -41.983, -43.117, 46.325, 28.97, -0.59647, -0.23819, 0.72672, -0.24347,
 11:23:42.859,e8:9e:2c:53:09:e3, 2024-07-06 21:57:47:605, 0.954, -0.011, -0.189, -3.784, -2.197, -4.578, -165.91, -79.228, -155.462, -40.450, -45.925, 46.458, 28.97, -0.59772, -0.23819, 0.73264, -0.22168,
 11:23:42.934,e8:9e:2c:53:09:e3, 2024-07-06 21:57:47:705, 0.981, -0.004, -0.186, 0.916, -7.446, 1.526, -168.052, -78.816, -153.918, -40.450, -45.925, 46.458, 28.97, -0.59772, -0.23819, 0.73264, -0.22168,
 11:23:43.055,e8:9e:2c:53:09:e3, 2024-07-06 21:57:47:805, 0.96, -0.039, -0.246, 1.526, -10.864, 3.906, -167.849, -77.723, -154.572, -40.450, -45.925, 46.458, 28.97, -0.59772, -0.23819, 0.73264, -0.22168,
 11:23:43.145,e8:9e:2c:53:09:e3, 2024-07-06 21:57:47:905, 0.966, -0.013, -0.254, -3.845, -4.333, 2.136, -168.008, -76.965, -155.127, -38.575, -46.442, 48.350, 28.97, -0.59772, -0.23819, 0.73264, -0.22168,
 11:23:43.266,e8:9e:2c:53:09:e3, 2024-07-06 21:57:48:005, 0.94, -0.015, -0.23, -7.019, -4.272, 4.7, -168.212, -76.459, -156.055, -38.575, -46.442, 48.350, 28.97, -0.58554, -0.2251, 0.75058, -0.20724,
 11:23:43.339,e8:9e:2c:53:09:e3, 2024-07-06 21:57:48:105, 0.925, -0.031, -0.262, -2.319, -7.507, 8.484, -166.91, -75.597, -158.555, -38.575, -46.442, 48.350, 28.97, -0.58554, -0.2251, 0.75058, -0.20724,
 11:23:43.459,e8:9e:2c:53:09:e3, 2024-07-06 21:57:48:205, 0.945, -0.023, -0.31, 1.221, -1.465, 4.395, -165.52, -74.949, -160.455, -37.758, -46.617, 48.650, 28.97, -0.57782, -0.2048, 0.76471, -0.1983,
 11:23:43.549,e8:9e:2c:53:09:e3, 2024-07-06 21:57:48:305, 0.945, -0.034, -0.279, 1.16, -0.549, 2.625, -165.13, -74.756, -161.548, -37.758, -46.617, 48.650, 28.97, -0.57782, -0.2048, 0.76471, -0.1983,
 11:23:43.668,e8:9e:2c:53:09:e3, 2024-07-06 21:57:48:405, 0.941, -0.057, -0.29, 1.343, 5.066, -1.16, -164.883, -74.795, -162.35, -37.758, -46.617, 48.650, 28.97, -0.57782, -0.2048, 0.76471, -0.1983,
 11:23:43.745,e8:9e:2c:53:09:e3, 2024-07-06 21:57:48:505, 0.938, -0.029, -0.253, 5.92, 13.123, -9.644, -166.262, -75.883, -160.944, -38.275, -46.758, 48.267, 28.97, -0.57782, -0.2048, 0.76471, -0.1983,
 11:23:43.864,e8:9e:2c:53:09:e3, 2024-07-06 21:57:48:605, 0.962, 0.013, -0.221, 1.221, 4.883, -1.892, -168.475, -76.893, -158.368, -38.275, -46.758, 48.267, 28.97, -0.59222, -0.20746, 0.75409, -0.19363,
 11:23:43.969,e8:9e:2c:53:09:e3, 2024-07-06 21:57:48:705, 0.972, -0.01, -0.238, 9.094, -2.502, 4.15, -167.69, -76.827, -159.351, -38.275, -46.758, 48.267, 28.97, -0.59222, -0.20746, 0.75409, -0.19363,
 11:23:44.090,e8:9e:2c:53:09:e3, 2024-07-06 21:57:48:805, 0.959, -0.076, -0.263, 10.01, 2.136, -5.859, -167.141, -76.652, -159.785, -38.317, -45.925, 48.725, 28.97, -0.59222, -0.20746, 0.75409, -0.19363,
 11:23:44.165,e8:9e:2c:53:09:e3, 2024-07-06 21:57:48:905, 0.955, -0.02, -0.254, 5.005, 6.592, -11.597, -169.865, -77.13, -156.478, -38.317, -45.925, 48.725, 28.97, -0.59705, -0.21625, 0.74829, -0.19162,
 11:23:44.268,e8:9e:2c:53:09:e3, 2024-07-06 21:57:49:005, 0.96, 0.022, -0.233, 1.099, 4.333, -5.493, -173.611, -77.739, -152.677, -38.317, -45.925, 48.725, 28.97, -0.59705, -0.21625, 0.74829, -0.19162,
 11:23:44.345,e8:9e:2c:53:09:e3, 2024-07-06 21:57:49:105, 0.961, 0, -0.241, -0.244, 7.08, -5.249, -175.787, -78.146, -150.897, -38.400, -47.167, 48.033, 28.97, -0.59705, -0.21625, 0.74829, -0.19162,
 11:23:44.478,e8:9e:2c:53:09:e3, 2024-07-06 21:57:49:205, 0.98, 0.035, -0.223, -3.845, 11.597, -4.333, -178.885, -78.975, -148.255, -38.400, -47.167, 48.033, 28.97, -0.60959, -0.21692, 0.74057, -0.18106,
 11:23:44.555,e8:9e:2c:53:09:e3, 2024-07-06 21:57:49:305, 0.974, 0.018, -0.196, -1.648, 10.925, -3.174, 178.555, -79.92, -146.376, -38.400, -47.167, 48.033, 28.97, -0.60959, -0.21692, 0.74057, -0.18106,
 11:23:44.674,e8:9e:2c:53:09:e3, 2024-07-06 21:57:49:405, 0.975, 0.009, -0.184, 7.812, 12.268, -5.249, 175.995, -80.969, -143.871, -39.933, -48.483, 45.608, 28.97, -0.62918, -0.2171, 0.72482, -0.17755,
 11:23:44.750,e8:9e:2c:53:09:e3, 2024-07-06 21:57:49:505, 0.971, 0.047, -0.143, 7.69, 8.728, -1.77, 173.057, -81.876, -140.455, -39.933, -48.483, 45.608, 28.97, -0.62918, -0.2171, 0.72482, -0.17755,
 11:23:44.869,e8:9e:2c:53:09:e3, 2024-07-06 21:57:49:605, 0.978, 0.057, -0.143, 2.686, 3.784, 0.854, 172.474, -82.337, -139.839, -39.933, -48.483, 45.608, 28.97, -0.62918, -0.2171, 0.72482, -0.17755,
 11:23:44.973,e8:9e:2c:53:09:e3, 2024-07-06 21:57:49:705, 0.982, 0.037, -0.156, -0.488, 3.113, 0.366, 172.375, -82.507, -140.416, -41.067, -47.925, 44.333, 28.97, -0.62918, -0.2171, 0.72482, -0.17755,
 11:23:45.094,e8:9e:2c:53:09:e3, 2024-07-06 21:57:49:805, 0.976, 0.057, -0.134, -0.977, 3.662, -1.099, 170.695, -82.766, -139.301, -41.067, -47.925, 44.333, 28.97, -0.63925, -0.20935, 0.7197, -0.17157,
 11:23:45.154,e8:9e:2c:53:09:e3, 2024-07-06 21:57:49:905, 0.972, 0.064, -0.135, -2.258, 2.075, 2.502, 169.783, -82.952, -139.318, -41.067, -47.925, 44.333, 28.97, -0.63925, -0.20935, 0.7197, -0.17157,
 11:23:45.273,e8:9e:2c:53:09:e3, 2024-07-06 21:57:50:005, 0.981, 0.046, -0.132, -0.427, 0.793, 3.967, 171.37, -83.04, -141.724, -41.642, -48.617, 43.583, 28.97, -0.64301, -0.19238, 0.72336, -0.16174,
 11:23:45.363,e8:9e:2c:53:09:e3, 2024-07-06 21:57:50:105, 0.974, 0.035, -0.143, 0.732, -0.488, 4.7, 174.424, -83.002, -145.536, -41.642, -48.617, 43.583, 28.97, -0.64301, -0.19238, 0.72336, -0.16174,
 11:23:45.485,e8:9e:2c:53:09:e3, 2024-07-06 21:57:50:205, 0.976, 0.029, -0.139, 1.404, -0.488, 2.991, 176.677, -82.914, -148.343, -41.642, -48.617, 43.583, 28.97, -0.64301, -0.19238, 0.72336, -0.16174,
 11:23:45.560,e8:9e:2c:53:09:e3, 2024-07-06 21:57:50:305, 0.973, 0.038, -0.133, 2.38, -2.197, 5.066, 179.039, -82.727, -151.254, -41.842, -47.683, 43.775, 28.97, -0.64301, -0.19238, 0.72336, -0.16174,
 11:23:45.679,e8:9e:2c:53:09:e3, 2024-07-06 21:57:50:405, 0.978, 0.019, -0.149, 4.883, -6.104, 9.583, -175.71, -82.194, -157.061, -41.842, -47.683, 43.775, 28.97, -0.63791, -0.1734, 0.73337, -0.15826,
 11:23:45.754,e8:9e:2c:53:09:e3, 2024-07-06 21:57:50:505, 0.973, -0.005, -0.179, 5.981, -5.432, 8.423, -170.063, -81.409, -163.07, -41.842, -47.683, 43.775, 28.97, -0.63791, -0.1734, 0.73337, -0.15826,
 11:23:45.875,e8:9e:2c:53:09:e3, 2024-07-06 21:57:50:605, 0.971, -0.016, -0.182, 2.38, -0.977, 4.028, -166.833, -80.909, -166.663, -41.342, -45.183, 46.158, 28.97, -0.63791, -0.1734, 0.73337, -0.15826,
 11:23:45.965,e8:9e:2c:53:09:e3, 2024-07-06 21:57:50:705, 0.973, -0.013, -0.185, 0.122, 1.16, 1.221, -165.773, -80.782, -168.179, -41.342, -45.183, 46.158, 28.97, -0.63016, -0.15625, 0.74368, -0.15906,
 11:23:46.099,e8:9e:2c:53:09:e3, 2024-07-06 21:57:50:805, 0.971, -0.015, -0.177, -0.183, 0.793, 2.625, -165.037, -80.766, -169.519, -41.342, -45.183, 46.158, 28.97, -0.63016, -0.15625, 0.74368, -0.15906,
 11:23:46.159,e8:9e:2c:53:09:e3, 2024-07-06 21:57:50:905, 0.972, -0.024, -0.179, 1.221, 1.16, 1.953, -164.004, -80.711, -171.101, -41.683, -44.592, 45.867, 28.97, -0.63016, -0.15625, 0.74368, -0.15906,
 11:23:46.278,e8:9e:2c:53:09:e3, 2024-07-06 21:57:51:005, 0.972, -0.023, -0.175, 1.221, 1.587, 1.038, -163.405, -80.755, -172.145, -41.683, -44.592, 45.867, 28.97, -0.63184, -0.14532, 0.74557, -0.15384,
 11:23:46.370,e8:9e:2c:53:09:e3, 2024-07-06 21:57:51:105, 0.97, -0.022, -0.177, 1.892, 1.709, 1.465, -162.839, -80.815, -173.128, -41.683, -44.592, 45.867, 28.97, -0.63184, -0.14532, 0.74557, -0.15384,
 11:23:46.489,e8:9e:2c:53:09:e3, 2024-07-06 21:57:51:205, 0.972, -0.023, -0.175, 1.648, 1.587, 1.831, -162.087, -80.865, -174.276, -41.783, -44.375, 46.083, 28.97, -0.63443, -0.13589, 0.74609, -0.14923,
 11:23:46.563,e8:9e:2c:53:09:e3, 2024-07-06 21:57:51:305, 0.973, -0.028, -0.172, 1.892, 1.282, 1.526, -161.301, -80.881, -175.457, -41.783, -44.375, 46.083, 28.97, -0.63443, -0.13589, 0.74609, -0.14923,
 11:23:46.699,e8:9e:2c:53:09:e3, 2024-07-06 21:57:51:405, 0.973, -0.032, -0.17, 1.282, 0.977, 1.465, -160.675, -80.881, -176.539, -41.783, -44.375, 46.083, 28.97, -0.63443, -0.13589, 0.74609, -0.14923,
 11:23:46.775,e8:9e:2c:53:09:e3, 2024-07-06 21:57:51:505, 0.972, -0.036, -0.172, -0.183, 0.854, 1.282, -160.208, -80.854, -177.523, -42.117, -44.250, 45.692, 28.97, -0.63443, -0.13589, 0.74609, -0.14923,
 11:23:46.895,e8:9e:2c:53:09:e3, 2024-07-06 21:57:51:605, 0.972, -0.027, -0.169, -0.854, 1.343, -0.122, -160.45, -80.898, -177.885, -42.117, -44.250, 45.692, 28.97, -0.63681, -0.12408, 0.74771, -0.14111,
 11:23:46.974,e8:9e:2c:53:09:e3, 2024-07-06 21:57:51:705, 0.973, -0.028, -0.168, -0.061, 1.343, -0.122, -160.889, -80.969, -177.957, -42.117, -44.250, 45.692, 28.97, -0.63681, -0.12408, 0.74771, -0.14111,
 11:23:47.103,e8:9e:2c:53:09:e3, 2024-07-06 21:57:51:805, 0.973, -0.027, -0.17, 0.977, 0.732, 0.183, -161.224, -80.986, -178.05, -42.058, -44.633, 45.433, 28.97, -0.63882, -0.11639, 0.74878, -0.1326,
 11:23:47.179,e8:9e:2c:53:09:e3, 2024-07-06 21:57:51:905, 0.972, -0.025, -0.169, 0.488, 0.488, 0.305, -161.499, -80.975, -178.237, -42.058, -44.633, 45.433, 28.97, -0.63882, -0.11639, 0.74878, -0.1326,
 11:23:47.283,e8:9e:2c:53:09:e3, 2024-07-06 21:57:52:005, 0.973, -0.029, -0.169, 2.258, 0.061, 0.305, -161.647, -80.936, -178.484, -42.058, -44.633, 45.433, 28.97, -0.63882, -0.11639, 0.74878, -0.1326,
 11:23:47.374,e8:9e:2c:53:09:e3, 2024-07-06 21:57:52:105, 0.971, -0.024, -0.174, 3.479, 0.061, -0.244, -162.004, -80.876, -178.303, -41.933, -44.692, 45.533, 28.97, -0.63882, -0.11639, 0.74878, -0.1326,
 11:23:47.494,e8:9e:2c:53:09:e3, 2024-07-06 21:57:52:205, 0.973, -0.026, -0.17, 3.357, -0.549, 1.16, -162.054, -80.804, -178.478, -41.933, -44.692, 45.533, 28.97, -0.63864, -0.11121, 0.75064, -0.12732,
 11:23:47.568,e8:9e:2c:53:09:e3, 2024-07-06 21:57:52:305, 0.974, -0.025, -0.179, 3.357, 0.122, 1.77, -161.62, -80.662, -179.077, -41.933, -44.692, 45.533, 28.97, -0.63864, -0.11121, 0.75064, -0.12732,
 11:23:47.689,e8:9e:2c:53:09:e3, 2024-07-06 21:57:52:405, 0.974, -0.032, -0.183, 1.953, 2.258, 1.099, -160.911, -80.623, 179.934, -41.742, -43.975, 46.158, 28.97, -0.63864, -0.11121, 0.75064, -0.12732,
 11:23:47.780,e8:9e:2c:53:09:e3, 2024-07-06 21:57:52:505, 0.971, -0.033, -0.175, 4.272, 3.967, -1.831, -160.807, -80.837, 179.621, -41.742, -43.975, 46.158, 28.97, -0.6395, -0.10556, 0.75113, -0.12488,
 11:23:47.898,e8:9e:2c:53:09:e3, 2024-07-06 21:57:52:605, 0.972, -0.023, -0.167, 5.188, 3.967, -2.808, -161.603, -81.222, -179.506, -41.742, -43.975, 46.158, 28.97, -0.6395, -0.10556, 0.75113, -0.12488,
 11:23:47.975,e8:9e:2c:53:09:e3, 2024-07-06 21:57:52:705, 0.976, -0.017, -0.153, 4.272, 0.427, -1.099, -162.504, -81.442, -178.583, -41.925, -43.658, 46.042, 28.97, -0.6395, -0.10556, 0.75113, -0.12488,
 11:23:48.095,e8:9e:2c:53:09:e3, 2024-07-06 21:57:52:805, 0.968, -0.008, -0.168, 0.122, -1.953, 2.808, -162.768, -81.266, -178.588, -41.925, -43.658, 46.042, 28.97, -0.64261, -0.10742, 0.74869, -0.12195,
 11:23:48.184,e8:9e:2c:53:09:e3, 2024-07-06 21:57:52:905, 0.969, -0.027, -0.173, 0.122, -2.38, 3.662, -161.801, -80.898, 179.742, -41.925, -43.658, 46.042, 28.97, -0.64261, -0.10742, 0.74869, -0.12195,
 11:23:48.303,e8:9e:2c:53:09:e3, 2024-07-06 21:57:53:005, 0.974, -0.023, -0.177, 0.793, -2.808, 5.371, -160.439, -80.464, 177.891, -41.517, -43.117, 46.750, 28.97, -0.63745, -0.09052, 0.75613, -0.11676,
 11:23:48.379,e8:9e:2c:53:09:e3, 2024-07-06 21:57:53:105, 0.973, -0.061, -0.198, -1.892, 1.099, 2.808, -158.681, -80.079, 175.314, -41.517, -43.117, 46.750, 28.97, -0.63745, -0.09052, 0.75613, -0.11676,
 11:23:48.498,e8:9e:2c:53:09:e3, 2024-07-06 21:57:53:205, 0.973, -0.042, -0.183, 0.427, 8.118, -6.409, -159.802, -80.579, 175.88, -41.517, -43.117, 46.750, 28.97, -0.63745, -0.09052, 0.75613, -0.11676,
 11:23:48.575,e8:9e:2c:53:09:e3, 2024-07-06 21:57:53:305, 0.972, -0.019, -0.149, 1.892, 6.836, -5.859, -162.768, -81.469, 178.572, -42.025, -43.975, 45.725, 28.97, -0.63745, -0.09052, 0.75613, -0.11676,
 11:23:48.709,e8:9e:2c:53:09:e3, 2024-07-06 21:57:53:405, 0.976, -0.017, -0.148, 9.216, 0.183, -2.869, -164.636, -81.782, -179.302, -42.025, -43.975, 45.725, 28.97, -0.64813, -0.09201, 0.74857, -0.10495,
 11:23:48.785,e8:9e:2c:53:09:e3, 2024-07-06 21:57:53:505, 0.976, 0.001, -0.165, 4.15, -0.671, -1.343, -165.976, -81.705, -177.561, -42.025, -43.975, 45.725, 28.97, -0.64813, -0.09201, 0.74857, -0.10495,
 11:23:48.905,e8:9e:2c:53:09:e3, 2024-07-06 21:57:53:605, 0.974, -0.004, -0.17, -4.456, -1.099, 2.625, -166.328, -81.519, -178.011, -41.492, -43.675, 46.167, 28.97, -0.64813, -0.09201, 0.74857, -0.10495,
 11:23:48.979,e8:9e:2c:53:09:e3, 2024-07-06 21:57:53:705, 0.967, -0.01, -0.168, -2.502, 4.028, -1.099, -166.531, -81.573, -178.742, -41.492, -43.675, 46.167, 28.97, -0.64798, -0.08456, 0.75082, -0.09537,
 11:23:49.098,e8:9e:2c:53:09:e3, 2024-07-06 21:57:53:805, 0.974, 0.008, -0.173, 4.639, 4.395, -4.272, -168.503, -81.931, -176.808, -41.492, -43.675, 46.167, 28.97, -0.64798, -0.08456, 0.75082, -0.09537,
 11:23:49.190,e8:9e:2c:53:09:e3, 2024-07-06 21:57:53:905, 0.978, 0.026, -0.162, 7.507, 2.38, -2.747, -170.771, -82.244, -174.205, -41.642, -44.017, 46.058, 28.97, -0.64798, -0.08456, 0.75082, -0.09537,
 11:23:49.309,e8:9e:2c:53:09:e3, 2024-07-06 21:57:54:005, 0.974, -0.002, -0.154, 2.319, 2.258, -0.671, -171.524, -82.403, -173.831, -41.642, -44.017, 46.058, 28.97, -0.65305, -0.08875, 0.74655, -0.09058,
 11:23:49.385,e8:9e:2c:53:09:e3, 2024-07-06 21:57:54:105, 0.979, 0.006, -0.146, 4.944, 0.854, -0.671, -172.095, -82.485, -173.452, -41.642, -44.017, 46.058, 28.97, -0.65305, -0.08875, 0.74655, -0.09058,
 11:23:49.505,e8:9e:2c:53:09:e3, 2024-07-06 21:57:54:205, 0.975, 0.004, -0.152, -0.061, 0.732, 0.916, -172.348, -82.458, -173.507, -41.650, -43.833, 46.000, 28.97, -0.6539, -0.08313, 0.74716, -0.08459,
 11:23:49.579,e8:9e:2c:53:09:e3, 2024-07-06 21:57:54:305, 0.974, 0.006, -0.148, 0, 0.244, 1.587, -172.161, -82.419, -174.342, -41.650, -43.833, 46.000, 28.97, -0.6539, -0.08313, 0.74716, -0.08459,
 11:23:49.714,e8:9e:2c:53:09:e3, 2024-07-06 21:57:54:405, 0.975, 0.007, -0.156, 0.854, -0.366, 2.747, -171.326, -82.293, -175.765, -41.650, -43.833, 46.000, 28.97, -0.6539, -0.08313, 0.74716, -0.08459,
 11:23:49.805,e8:9e:2c:53:09:e3, 2024-07-06 21:57:54:505, 0.975, 0, -0.161, 1.404, 0.061, 2.38, -170.151, -82.156, -177.501, -41.708, -43.533, 46.150, 28.97, -0.6539, -0.08313, 0.74716, -0.08459,
 11:23:49.923,e8:9e:2c:53:09:e3, 2024-07-06 21:57:54:605, 0.973, -0.002, -0.16, 3.479, -0.183, 2.441, -168.926, -82.029, -179.116, -41.708, -43.533, 46.150, 28.97, -0.65265, -0.0694, 0.75037, -0.07785,
 11:23:49.984,e8:9e:2c:53:09:e3, 2024-07-06 21:57:54:705, 0.976, -0.005, -0.161, 3.906, 1.099, 2.563, -167.448, -81.964, 179.094, -41.708, -43.533, 46.150, 28.97, -0.65265, -0.0694, 0.75037, -0.07785,
 11:23:50.103,e8:9e:2c:53:09:e3, 2024-07-06 21:57:54:805, 0.976, -0.018, -0.156, 5.798, 0.183, 1.648, -166.053, -81.903, 177.545, -41.767, -42.517, 46.708, 28.97, -0.65219, -0.06177, 0.75146, -0.07751,
 11:23:50.210,e8:9e:2c:53:09:e3, 2024-07-06 21:57:54:905, 0.975, -0.017, -0.155, 0.549, 0.427, 2.747, -164.943, -81.821, 176.111, -41.767, -42.517, 46.708, 28.97, -0.65219, -0.06177, 0.75146, -0.07751,
 11:23:50.314,e8:9e:2c:53:09:e3, 2024-07-06 21:57:55:005, 0.976, -0.021, -0.165, -0.244, 0.305, 2.197, -163.735, -81.7, 174.309, -41.767, -42.517, 46.708, 28.97, -0.65219, -0.06177, 0.75146, -0.07751,
 11:23:50.389,e8:9e:2c:53:09:e3, 2024-07-06 21:57:55:105, 0.975, -0.017, -0.165, 1.16, 1.099, 0.671, -163.444, -81.661, 173.568, -41.683, -42.125, 46.917, 28.97, -0.65219, -0.06177, 0.75146, -0.07751,
 11:23:50.509,e8:9e:2c:53:09:e3, 2024-07-06 21:57:55:205, 0.975, -0.017, -0.165, 1.892, 0.916, 1.16, -163.098, -81.65, 172.815, -41.683, -42.125, 46.917, 28.97, -0.65231, -0.04941, 0.75296, -0.07071,
 11:23:50.598,e8:9e:2c:53:09:e3, 2024-07-06 21:57:55:305, 0.976, -0.023, -0.164, 3.357, 1.343, 0.305, -162.729, -81.667, 172.139, -41.683, -42.125, 46.917, 28.97, -0.65231, -0.04941, 0.75296, -0.07071,
 11:23:50.719,e8:9e:2c:53:09:e3, 2024-07-06 21:57:55:405, 0.976, -0.02, -0.158, 3.967, 1.282, -0.977, -163.043, -81.744, 172.365, -41.783, -41.775, 46.900, 28.97, -0.65335, -0.04623, 0.75259, -0.06708,
 11:23:50.808,e8:9e:2c:53:09:e3, 2024-07-06 21:57:55:505, 0.971, -0.014, -0.157, 1.953, 0.488, -0.183, -163.674, -81.771, 172.798, -41.783, -41.775, 46.900, 28.97, -0.65335, -0.04623, 0.75259, -0.06708,
 11:23:50.914,e8:9e:2c:53:09:e3, 2024-07-06 21:57:55:605, 0.977, -0.014, -0.165, -0.183, 1.526, -0.122, -164.004, -81.771, 172.7, -41.783, -41.775, 46.900, 28.97, -0.65335, -0.04623, 0.75259, -0.06708,
 11:23:50.989,e8:9e:2c:53:09:e3, 2024-07-06 21:57:55:705, 0.979, -0.019, -0.158, 3.784, 1.404, -0.122, -164.081, -81.837, 172.419, -41.808, -41.775, 46.917, 28.97, -0.65335, -0.04623, 0.75259, -0.06708,
 11:23:51.123,e8:9e:2c:53:09:e3, 2024-07-06 21:57:55:805, 0.974, -0.02, -0.154, 2.38, 2.686, -2.075, -164.729, -82.051, 172.87, -41.808, -41.775, 46.917, 28.97, -0.65546, -0.04056, 0.75171, -0.05969,
 11:23:51.200,e8:9e:2c:53:09:e3, 2024-07-06 21:57:55:905, 0.976, -0.014, -0.145, -0.183, 0.61, -0.671, -166.014, -82.194, 173.732, -41.808, -41.775, 46.917, 28.97, -0.65546, -0.04056, 0.75171, -0.05969,
 11:23:51.319,e8:9e:2c:53:09:e3, 2024-07-06 21:57:56:005, 0.976, 0, -0.152, 2.136, -0.916, 2.075, -166.355, -82.101, 173.727, -41.717, -41.950, 47.117, 28.97, -0.65521, -0.03406, 0.75275, -0.0528,
 11:23:51.395,e8:9e:2c:53:09:e3, 2024-07-06 21:57:56:105, 0.976, -0.018, -0.165, 1.16, -1.038, 3.052, -165.114, -81.848, 171.974, -41.717, -41.950, 47.117, 28.97, -0.65521, -0.03406, 0.75275, -0.0528,
 11:23:51.515,e8:9e:2c:53:09:e3, 2024-07-06 21:57:56:205, 0.974, -0.019, -0.163, 0.854, 0.671, 1.099, -164.279, -81.722, 170.634, -41.717, -41.950, 47.117, 28.97, -0.65521, -0.03406, 0.75275, -0.0528,
 11:23:51.605,e8:9e:2c:53:09:e3, 2024-07-06 21:57:56:305, 0.973, -0.014, -0.162, 0.366, 0.183, 0.244, -164.388, -81.689, 170.288, -41.725, -41.833, 47.308, 28.97, -0.65521, -0.03406, 0.75275, -0.0528,
 11:23:51.723,e8:9e:2c:53:09:e3, 2024-07-06 21:57:56:405, 0.973, -0.018, -0.163, 0.122, -0.977, 2.197, -164.361, -81.53, 169.678, -41.725, -41.833, 47.308, 28.97, -0.65363, -0.02145, 0.75513, -0.04468,
 11:23:51.813,e8:9e:2c:53:09:e3, 2024-07-06 21:57:56:505, 0.973, -0.019, -0.168, 0.366, -0.61, 2.869, -163.575, -81.315, 168.349, -41.725, -41.833, 47.308, 28.97, -0.65363, -0.02145, 0.75513, -0.04468,
 11:23:51.919,e8:9e:2c:53:09:e3, 2024-07-06 21:57:56:605, 0.974, -0.025, -0.17, -0.244, -0.061, 1.77, -162.845, -81.145, 166.981, -41.417, -41.675, 47.575, 28.97, -0.65164, -0.00812, 0.75751, -0.03714,
 11:23:52.024,e8:9e:2c:53:09:e3, 2024-07-06 21:57:56:705, 0.971, -0.018, -0.176, -2.869, 0.854, 0.549, -162.911, -81.09, 166.41, -41.417, -41.675, 47.575, 28.91, -0.65164, -0.00812, 0.75751, -0.03714,
 11:23:52.145,e8:9e:2c:53:09:e3, 2024-07-06 21:57:56:805, 0.971, -0.015, -0.169, -4.211, 0.488, 1.343, -163.323, -81.096, 165.789, -41.417, -41.675, 47.575, 28.91, -0.65164, -0.00812, 0.75751, -0.03714,
 11:23:52.205,e8:9e:2c:53:09:e3, 2024-07-06 21:57:56:905, 0.972, -0.02, -0.17, 1.16, -0.61, 1.404, -163.257, -80.975, 165.081, -41.392, -42.742, 46.958, 28.91, -0.65164, -0.00812, 0.75751, -0.03714,
 11:23:52.339,e8:9e:2c:53:09:e3, 2024-07-06 21:57:57:005, 0.972, -0.019, -0.179, 0.671, -0.244, 1.465, -163.076, -80.821, 164.504, -41.392, -42.742, 46.958, 28.91, -0.65054, 0.00638, 0.75897, -0.02493,
 11:23:52.399,e8:9e:2c:53:09:e3, 2024-07-06 21:57:57:105, 0.972, -0.02, -0.179, 0.793, -0.244, 1.831, -162.812, -80.689, 163.735, -41.392, -42.742, 46.958, 28.91, -0.65054, 0.00638, 0.75897, -0.02493,
 11:23:52.534,e8:9e:2c:53:09:e3, 2024-07-06 21:57:57:205, 0.971, -0.024, -0.183, -0.122, 0.122, 2.625, -162.098, -80.535, 162.438, -41.217, -42.742, 47.350, 28.91, -0.64896, 0.02008, 0.76028, -0.01715,
 11:23:52.609,e8:9e:2c:53:09:e3, 2024-07-06 21:57:57:305, 0.971, -0.032, -0.184, -2.625, 1.038, 1.587, -161.537, -80.464, 161.043, -41.217, -42.742, 47.350, 28.91, -0.64896, 0.02008, 0.76028, -0.01715,
 11:23:52.730,e8:9e:2c:53:09:e3, 2024-07-06 21:57:57:405, 0.971, -0.03, -0.178, -0.671, 1.831, 0.793, -161.455, -80.524, 160.291, -41.217, -42.742, 47.350, 28.91, -0.64896, 0.02008, 0.76028, -0.01715,
 11:23:52.806,e8:9e:2c:53:09:e3, 2024-07-06 21:57:57:505, 0.973, -0.025, -0.178, 1.953, 1.16, 0.854, -161.241, -80.574, 159.664, -41.333, -42.958, 46.833, 28.91, -0.64896, 0.02008, 0.76028, -0.01715,
 11:23:52.923,e8:9e:2c:53:09:e3, 2024-07-06 21:57:57:605, 0.971, -0.025, -0.176, 2.93, 0.916, 1.221, -160.906, -80.585, 158.95, -41.333, -42.958, 46.833, 28.91, -0.65009, 0.03192, 0.75906, -0.00787,
 11:23:53.017,e8:9e:2c:53:09:e3, 2024-07-06 21:57:57:705, 0.97, -0.034, -0.176, 1.221, 1.221, 1.343, -160.312, -80.585, 157.896, -41.333, -42.958, 46.833, 28.91, -0.65009, 0.03192, 0.75906, -0.00787,
 11:23:53.135,e8:9e:2c:53:09:e3, 2024-07-06 21:57:57:805, 0.971, -0.03, -0.176, 0.122, 1.587, 1.099, -160.016, -80.623, 157.104, -41.500, -42.717, 47.108, 28.91, -0.65088, 0.04138, 0.75797, -0.00143,
 11:23:53.209,e8:9e:2c:53:09:e3, 2024-07-06 21:57:57:905, 0.97, -0.029, -0.176, 1.282, 0.977, 1.221, -159.697, -80.645, 156.286, -41.500, -42.717, 47.108, 28.91, -0.65088, 0.04138, 0.75797, -0.00143,
 11:23:53.329,e8:9e:2c:53:09:e3, 2024-07-06 21:57:58:005, 0.971, -0.032, -0.173, 1.282, 0.977, 1.587, -159.247, -80.629, 155.391, -41.500, -42.717, 47.108, 28.91, -0.65088, 0.04138, 0.75797, -0.00143,
 11:23:53.420,e8:9e:2c:53:09:e3, 2024-07-06 21:57:58:105, 0.971, -0.034, -0.174, 2.014, 0.854, 1.16, -158.747, -80.601, 154.506, -41.575, -42.550, 46.817, 28.91, -0.65088, 0.04138, 0.75797, -0.00143,
 11:23:53.538,e8:9e:2c:53:09:e3, 2024-07-06 21:57:58:205, 0.971, -0.037, -0.175, 2.502, 0.732, 0.916, -158.423, -80.574, 153.864, -41.575, -42.550, 46.817, 28.91, -0.65097, 0.05176, 0.75723, 0.00467,
 11:23:53.614,e8:9e:2c:53:09:e3, 2024-07-06 21:57:58:305, 0.97, -0.038, -0.177, 3.357, 0.916, -0.366, -158.417, -80.574, 153.644, -41.575, -42.550, 46.817, 28.91, -0.65097, 0.05176, 0.75723, 0.00467,
 11:23:53.734,e8:9e:2c:53:09:e3, 2024-07-06 21:57:58:405, 0.972, -0.033, -0.174, 1.343, 1.038, 0, -158.802, -80.618, 153.781, -41.650, -42.150, 46.600, 28.91, -0.65094, 0.05606, 0.75693, 0.00931,
 11:23:53.809,e8:9e:2c:53:09:e3, 2024-07-06 21:57:58:505, 0.971, -0.034, -0.177, 1.038, 0.671, 0.732, -158.846, -80.596, 153.419, -41.650, -42.150, 46.600, 28.91, -0.65094, 0.05606, 0.75693, 0.00931,
 11:23:53.945,e8:9e:2c:53:09:e3, 2024-07-06 21:57:58:605, 0.972, -0.036, -0.176, 1.099, 0.977, 0.366, -158.873, -80.585, 153.029, -41.650, -42.150, 46.600, 28.91, -0.65094, 0.05606, 0.75693, 0.00931,
 11:23:54.022,e8:9e:2c:53:09:e3, 2024-07-06 21:57:58:705, 0.971, -0.032, -0.175, 1.831, 0.61, 0.427, -158.989, -80.585, 152.781, -41.617, -42.325, 46.958, 28.91, -0.65094, 0.05606, 0.75693, 0.00931,
 11:23:54.139,e8:9e:2c:53:09:e3, 2024-07-06 21:57:58:805, 0.971, -0.033, -0.176, 1.709, 0.122, 1.099, -158.961, -80.53, 152.38, -41.617, -42.325, 46.958, 28.91, -0.6503, 0.06461, 0.75668, 0.01648,
 11:23:54.214,e8:9e:2c:53:09:e3, 2024-07-06 21:57:58:905, 0.971, -0.037, -0.178, 1.831, 0.183, 1.038, -158.78, -80.436, 151.831, -41.617, -42.325, 46.958, 28.91, -0.6503, 0.06461, 0.75668, 0.01648,
 11:23:54.349,e8:9e:2c:53:09:e3, 2024-07-06 21:57:59:005, 0.971, -0.038, -0.18, 2.014, 0.305, 0.549, -158.714, -80.37, 151.419, -41.550, -42.050, 47.342, 28.91, -0.6503, 0.06461, 0.75668, 0.01648,
 11:23:54.423,e8:9e:2c:53:09:e3, 2024-07-06 21:57:59:105, 0.973, -0.035, -0.181, 0.977, 0.854, 0.366, -158.857, -80.349, 151.188, -41.550, -42.050, 47.342, 28.91, -0.64911, 0.07193, 0.7569, 0.02173,
 11:23:54.548,e8:9e:2c:53:09:e3, 2024-07-06 21:57:59:205, 0.971, -0.04, -0.182, 0.854, 1.099, 0.061, -159.044, -80.37, 150.93, -41.550, -42.050, 47.342, 28.91, -0.64911, 0.07193, 0.7569, 0.02173,
 11:23:54.619,e8:9e:2c:53:09:e3, 2024-07-06 21:57:59:305, 0.969, -0.033, -0.179, 0.916, 1.953, -0.977, -159.604, -80.48, 151.078, -41.450, -42.142, 47.083, 28.91, -0.64911, 0.07193, 0.7569, 0.02173,
 11:23:54.739,e8:9e:2c:53:09:e3, 2024-07-06 21:57:59:405, 0.971, -0.033, -0.175, 1.648, 1.587, -0.854, -160.219, -80.618, 151.337, -41.450, -42.142, 47.083, 28.91, -0.64981, 0.07809, 0.7554, 0.03046,
 11:23:54.830,e8:9e:2c:53:09:e3, 2024-07-06 21:57:59:505, 0.97, -0.025, -0.174, 1.648, 0.732, 0.61, -160.543, -80.656, 151.348, -41.450, -42.142, 47.083, 28.91, -0.64981, 0.07809, 0.7554, 0.03046,
 11:23:54.949,e8:9e:2c:53:09:e3, 2024-07-06 21:57:59:605, 0.969, -0.026, -0.176, 1.16, -0.549, 2.441, -160.197, -80.552, 150.606, -41.533, -42.200, 47.217, 28.91, -0.64856, 0.08698, 0.75525, 0.03635,
 11:23:55.038,e8:9e:2c:53:09:e3, 2024-07-06 21:57:59:705, 0.973, -0.041, -0.181, -1.953, -0.488, 2.869, -159.417, -80.354, 149.139, -41.533, -42.200, 47.217, 28.91, -0.64856, 0.08698, 0.75525, 0.03635,
 11:23:55.145,e8:9e:2c:53:09:e3, 2024-07-06 21:57:59:805, 0.97, -0.042, -0.185, -0.732, 2.197, -0.916, -159.263, -80.288, 148.321, -41.533, -42.200, 47.217, 28.91, -0.64856, 0.08698, 0.75525, 0.03635,
 11:23:55.219,e8:9e:2c:53:09:e3, 2024-07-06 21:57:59:905, 0.97, -0.028, -0.175, 1.709, 2.563, -1.282, -160.021, -80.502, 148.672, -41.492, -42.550, 47.042, 28.91, -0.64856, 0.08698, 0.75525, 0.03635,
 11:23:55.355,e8:9e:2c:53:09:e3, 2024-07-06 21:58:00:005, 0.972, -0.027, -0.174, 2.319, 0.793, 1.038, -160.214, -80.612, 148.535, -41.492, -42.550, 47.042, 28.91, -0.6489, 0.09656, 0.75323, 0.04657,
 11:23:55.429,e8:9e:2c:53:09:e3, 2024-07-06 21:58:00:105, 0.97, -0.032, -0.178, 2.625, 0.793, 0.244, -160.038, -80.59, 148.035, -41.492, -42.550, 47.042, 28.91, -0.6489, 0.09656, 0.75323, 0.04657,
 11:23:55.550,e8:9e:2c:53:09:e3, 2024-07-06 21:58:00:205, 0.972, -0.03, -0.177, 2.625, 0.793, -0.061, -160.219, -80.612, 147.942, -41.592, -42.383, 46.942, 28.91, -0.6485, 0.10193, 0.75253, 0.05139,
 11:23:55.625,e8:9e:2c:53:09:e3, 2024-07-06 21:58:00:305, 0.972, -0.029, -0.177, 0.916, 0.671, 0.427, -160.4, -80.612, 147.755, -41.592, -42.383, 46.942, 28.91, -0.6485, 0.10193, 0.75253, 0.05139,
 11:23:55.744,e8:9e:2c:53:09:e3, 2024-07-06 21:58:00:405, 0.972, -0.029, -0.174, -2.991, 1.587, 0.488, -160.571, -80.651, 147.096, -41.592, -42.383, 46.942, 28.91, -0.6485, 0.10193, 0.75253, 0.05139,
 11:23:55.834,e8:9e:2c:53:09:e3, 2024-07-06 21:58:00:505, 0.971, -0.027, -0.173, 0.183, 1.343, -0.244, -161.021, -80.722, 146.937, -41.583, -43.042, 46.600, 28.91, -0.6485, 0.10193, 0.75253, 0.05139,
 11:23:55.954,e8:9e:2c:53:09:e3, 2024-07-06 21:58:00:605, 0.971, -0.027, -0.173, 0.854, 0.916, 0.549, -161.257, -80.75, 146.733, -41.583, -43.042, 46.600, 28.91, -0.64792, 0.11377, 0.7504, 0.06381,
 11:23:56.033,e8:9e:2c:53:09:e3, 2024-07-06 21:58:00:705, 0.971, -0.025, -0.174, 1.587, 0.854, 0.61, -161.29, -80.75, 146.382, -41.583, -43.042, 46.600, 28.91, -0.64792, 0.11377, 0.7504, 0.06381,
 11:23:56.149,e8:9e:2c:53:09:e3, 2024-07-06 21:58:00:805, 0.971, -0.026, -0.174, 0.549, 0.732, 0.854, -161.246, -80.733, 145.909, -41.550, -43.158, 46.475, 28.91, -0.64703, 0.1217, 0.74933, 0.0704,
 11:23:56.240,e8:9e:2c:53:09:e3, 2024-07-06 21:58:00:905, 0.972, -0.025, -0.176, 1.526, 0.549, 0.793, -161.18, -80.706, 145.415, -41.550, -43.158, 46.475, 28.91, -0.64703, 0.1217, 0.74933, 0.0704,
 11:23:56.359,e8:9e:2c:53:09:e3, 2024-07-06 21:58:01:005, 0.971, -0.028, -0.176, 1.953, 0.427, 0.916, -161.027, -80.656, 144.871, -41.550, -43.158, 46.475, 28.91, -0.64703, 0.1217, 0.74933, 0.0704,
 11:23:56.435,e8:9e:2c:53:09:e3, 2024-07-06 21:58:01:105, 0.971, -0.027, -0.178, 1.404, 0.427, 0.977, -160.895, -80.607, 144.366, -41.525, -42.975, 46.733, 28.91, -0.64703, 0.1217, 0.74933, 0.0704,
 11:23:56.553,e8:9e:2c:53:09:e3, 2024-07-06 21:58:01:205, 0.971, -0.027, -0.179, 1.221, 0.366, 0.916, -160.84, -80.552, 143.844, -41.525, -42.975, 46.733, 28.91, -0.64542, 0.13083, 0.74854, 0.07687,
 11:23:56.628,e8:9e:2c:53:09:e3, 2024-07-06 21:58:01:305, 0.971, -0.029, -0.179, 1.038, 0.732, 0.671, -160.801, -80.524, 143.366, -41.525, -42.975, 46.733, 28.91, -0.64542, 0.13083, 0.74854, 0.07687,
 11:23:56.765,e8:9e:2c:53:09:e3, 2024-07-06 21:58:01:405, 0.971, -0.029, -0.178, 1.526, 0.671, 0.671, -160.834, -80.513, 142.971, -41.417, -42.925, 46.700, 28.91, -0.64423, 0.13876, 0.74744, 0.08331,
 11:23:56.839,e8:9e:2c:53:09:e3, 2024-07-06 21:58:01:505, 0.97, -0.03, -0.179, 2.014, 0.488, 0.671, -160.79, -80.48, 142.542, -41.417, -42.925, 46.700, 28.91, -0.64423, 0.13876, 0.74744, 0.08331,
 11:23:56.975,e8:9e:2c:53:09:e3, 2024-07-06 21:58:01:605, 0.97, -0.028, -0.181, 1.648, 0.488, 0.793, -160.735, -80.442, 142.163, -41.417, -42.925, 46.700, 28.91, -0.64423, 0.13876, 0.74744, 0.08331,
 11:23:57.035,e8:9e:2c:53:09:e3, 2024-07-06 21:58:01:705, 0.97, -0.033, -0.181, 0.854, 0.793, 0.793, -160.653, -80.403, 141.669, -41.208, -42.708, 46.933, 28.91, -0.64423, 0.13876, 0.74744, 0.08331,
 11:23:57.155,e8:9e:2c:53:09:e3, 2024-07-06 21:58:01:805, 0.971, -0.03, -0.18, 0.977, 0.793, 0.549, -160.686, -80.392, 141.251, -41.208, -42.708, 46.933, 28.91, -0.64273, 0.14749, 0.74625, 0.09006,
 11:23:57.243,e8:9e:2c:53:09:e3, 2024-07-06 21:58:01:905, 0.97, -0.029, -0.183, 0.793, 1.099, 0.549, -160.708, -80.398, 140.823, -41.208, -42.708, 46.933, 28.91, -0.64273, 0.14749, 0.74625, 0.09006,
 11:23:57.364,e8:9e:2c:53:09:e3, 2024-07-06 21:58:02:005, 0.97, -0.028, -0.179, 1.465, 1.038, 0.427, -160.741, -80.425, 140.422, -41.317, -42.817, 46.633, 28.91, -0.64188, 0.15521, 0.7446, 0.09683,
 11:23:57.438,e8:9e:2c:53:09:e3, 2024-07-06 21:58:02:105, 0.971, -0.029, -0.181, 2.258, 0.427, 0.793, -160.664, -80.403, 139.993, -41.317, -42.817, 46.633, 28.91, -0.64188, 0.15521, 0.7446, 0.09683,
 11:23:57.559,e8:9e:2c:53:09:e3, 2024-07-06 21:58:02:205, 0.97, -0.026, -0.181, 1.099, 0.671, 0.916, -160.626, -80.376, 139.565, -41.317, -42.817, 46.633, 28.91, -0.64188, 0.15521, 0.7446, 0.09683,
 11:23:57.650,e8:9e:2c:53:09:e3, 2024-07-06 21:58:02:305, 0.97, -0.031, -0.18, 1.892, 0.427, 1.16, -160.417, -80.332, 138.955, -41.325, -42.608, 47.100, 28.91, -0.64188, 0.15521, 0.7446, 0.09683,
 11:23:57.769,e8:9e:2c:53:09:e3, 2024-07-06 21:58:02:405, 0.971, -0.031, -0.184, 1.404, 0.793, 0.732, -160.208, -80.283, 138.395, -41.325, -42.608, 47.100, 28.91, -0.64035, 0.1637, 0.74332, 0.10263,
 11:23:57.845,e8:9e:2c:53:09:e3, 2024-07-06 21:58:02:505, 0.969, -0.031, -0.185, 0.793, 0.977, 0.427, -160.258, -80.294, 138.021, -41.325, -42.608, 47.100, 28.91, -0.64035, 0.1637, 0.74332, 0.10263,
 11:23:57.964,e8:9e:2c:53:09:e3, 2024-07-06 21:58:02:605, 0.97, -0.03, -0.182, 1.16, 1.038, 0.488, -160.384, -80.316, 137.675, -41.258, -42.617, 47.233, 28.91, -0.63934, 0.17133, 0.74142, 0.10974,
 11:23:58.054,e8:9e:2c:53:09:e3, 2024-07-06 21:58:02:705, 0.97, -0.029, -0.181, 0.977, 1.038, 0.61, -160.411, -80.327, 137.285, -41.258, -42.617, 47.233, 28.91, -0.63934, 0.17133, 0.74142, 0.10974,
 11:23:58.203,e8:9e:2c:53:09:e3, 2024-07-06 21:58:02:805, 0.969, -0.031, -0.181, 1.831, 0.793, 0.549, -160.411, -80.327, 136.906, -41.258, -42.617, 47.233, 28.91, -0.63934, 0.17133, 0.74142, 0.10974,
 11:23:58.248,e8:9e:2c:53:09:e3, 2024-07-06 21:58:02:905, 0.97, -0.03, -0.181, 2.502, 0.488, 0.427, -160.428, -80.305, 136.62, -41.258, -42.617, 47.233, 28.91, -0.63934, 0.17133, 0.74142, 0.10974,
 11:23:58.370,e8:9e:2c:53:09:e3, 2024-07-06 21:58:03:005, 0.97, -0.03, -0.184, 1.648, 0.488, 0.671, -160.455, -80.266, 136.307, -41.383, -42.550, 47.200, 28.91, -0.63763, 0.17975, 0.73984, 0.11667,
 11:23:58.445,e8:9e:2c:53:09:e3, 2024-07-06 21:58:03:105, 0.97, -0.031, -0.183, 0.732, 0.671, 0.977, -160.395, -80.233, 135.802, -41.383, -42.550, 47.200, 28.91, -0.63763, 0.17975, 0.73984, 0.11667,
 11:23:58.563,e8:9e:2c:53:09:e3, 2024-07-06 21:58:03:205, 0.97, -0.033, -0.183, 0.366, 0.977, 0.366, -160.384, -80.222, 135.286, -41.275, -42.725, 47.100, 28.91, -0.63635, 0.18704, 0.73813, 0.12292,
 11:23:58.656,e8:9e:2c:53:09:e3, 2024-07-06 21:58:03:305, 0.97, -0.029, -0.183, 0.061, 1.16, 0.305, -160.538, -80.25, 134.978, -41.275, -42.725, 47.100, 28.91, -0.63635, 0.18704, 0.73813, 0.12292,
 11:23:58.775,e8:9e:2c:53:09:e3, 2024-07-06 21:58:03:405, 0.97, -0.03, -0.182, 0.732, 1.038, 0.61, -160.653, -80.266, 134.632, -41.275, -42.725, 47.100, 28.91, -0.63635, 0.18704, 0.73813, 0.12292,
 11:23:58.849,e8:9e:2c:53:09:e3, 2024-07-06 21:58:03:505, 0.97, -0.03, -0.183, 1.221, 1.099, 0.427, -160.703, -80.283, 134.242, -41.250, -42.967, 46.917, 28.91, -0.63635, 0.18704, 0.73813, 0.12292,
 11:23:58.984,e8:9e:2c:53:09:e3, 2024-07-06 21:58:03:605, 0.97, -0.029, -0.181, 1.16, 0.854, 0.61, -160.763, -80.299, 133.901, -41.250, -42.967, 46.917, 28.91, -0.63501, 0.1955, 0.73569, 0.13101,
 11:23:59.059,e8:9e:2c:53:09:e3, 2024-07-06 21:58:03:705, 0.969, -0.03, -0.182, 1.099, 0.793, 0.61, -160.779, -80.288, 133.473, -41.250, -42.967, 46.917, 28.91, -0.63501, 0.1955, 0.73569, 0.13101,
 11:23:59.179,e8:9e:2c:53:09:e3, 2024-07-06 21:58:03:805, 0.97, -0.03, -0.182, 1.404, 0.916, 0.61, -160.763, -80.283, 133.033, -41.208, -43.183, 46.817, 28.91, -0.63361, 0.20328, 0.73361, 0.13766,
 11:23:59.254,e8:9e:2c:53:09:e3, 2024-07-06 21:58:03:905, 0.971, -0.032, -0.182, 1.221, 1.099, 0.61, -160.714, -80.299, 132.578, -41.208, -43.183, 46.817, 28.91, -0.63361, 0.20328, 0.73361, 0.13766,
 11:23:59.373,e8:9e:2c:53:09:e3, 2024-07-06 21:58:04:005, 0.97, -0.029, -0.182, 1.343, 1.16, 0.671, -160.642, -80.321, 132.111, -41.208, -43.183, 46.817, 28.91, -0.63361, 0.20328, 0.73361, 0.13766,
 11:23:59.448,e8:9e:2c:53:09:e3, 2024-07-06 21:58:04:105, 0.971, -0.03, -0.182, 1.465, 1.038, 0.854, -160.521, -80.332, 131.589, -41.333, -42.850, 47.008, 28.91, -0.63361, 0.20328, 0.73361, 0.13766,
 11:23:59.599,e8:9e:2c:53:09:e3, 2024-07-06 21:58:04:205, 0.97, -0.03, -0.181, 1.099, 1.099, 0.793, -160.395, -80.343, 131.045, -41.333, -42.850, 47.008, 28.91, -0.63239, 0.21228, 0.73065, 0.1452,
 11:23:59.660,e8:9e:2c:53:09:e3, 2024-07-06 21:58:04:305, 0.97, -0.031, -0.181, 1.465, 1.038, 0.671, -160.285, -80.354, 130.529, -41.333, -42.850, 47.008, 28.91, -0.63239, 0.21228, 0.73065, 0.1452,
 11:23:59.778,e8:9e:2c:53:09:e3, 2024-07-06 21:58:04:405, 0.97, -0.032, -0.181, 2.136, 0.977, 0.61, -160.175, -80.359, 130.067, -41.400, -42.883, 46.783, 28.91, -0.63141, 0.21854, 0.72861, 0.1503,
 11:23:59.853,e8:9e:2c:53:09:e3, 2024-07-06 21:58:04:505, 0.971, -0.031, -0.18, 1.892, 0.732, 0.732, -160.076, -80.359, 129.655, -41.400, -42.883, 46.783, 28.91, -0.63141, 0.21854, 0.72861, 0.1503,
 11:23:59.973,e8:9e:2c:53:09:e3, 2024-07-06 21:58:04:605, 0.971, -0.032, -0.183, 1.038, 0.977, 0.854, -159.928, -80.343, 129.117, -41.400, -42.883, 46.783, 28.91, -0.63141, 0.21854, 0.72861, 0.1503,
 11:24:00.080,e8:9e:2c:53:09:e3, 2024-07-06 21:58:04:705, 0.97, -0.03, -0.181, 0.977, 0.977, 0.488, -159.972, -80.354, 128.732, -41.317, -42.892, 47.067, 28.91, -0.63141, 0.21854, 0.72861, 0.1503,
 11:24:00.183,e8:9e:2c:53:09:e3, 2024-07-06 21:58:04:805, 0.97, -0.032, -0.18, 0.977, 0.977, 0.732, -159.939, -80.365, 128.26, -41.317, -42.892, 47.067, 28.91, -0.6297, 0.22723, 0.72589, 0.15759,
 11:24:00.259,e8:9e:2c:53:09:e3, 2024-07-06 21:58:04:905, 0.971, -0.031, -0.18, 0.977, 1.038, 0.671, -159.895, -80.37, 127.798, -41.317, -42.892, 47.067, 28.91, -0.6297, 0.22723, 0.72589, 0.15759,
 11:24:00.380,e8:9e:2c:53:09:e3, 2024-07-06 21:58:05:005, 0.971, -0.032, -0.181, 1.404, 0.793, 0.854, -159.802, -80.365, 127.304, -41.392, -42.775, 46.933, 28.91, -0.62827, 0.23434, 0.72357, 0.16333,
 11:24:00.468,e8:9e:2c:53:09:e3, 2024-07-06 21:58:05:105, 0.971, -0.032, -0.18, 1.465, 0.854, 0.793, -159.675, -80.354, 126.793, -41.392, -42.775, 46.933, 28.91, -0.62827, 0.23434, 0.72357, 0.16333,
 11:24:00.588,e8:9e:2c:53:09:e3, 2024-07-06 21:58:05:205, 0.971, -0.035, -0.181, 1.648, 0.793, 0.793, -159.538, -80.332, 126.277, -41.392, -42.775, 46.933, 28.91, -0.62827, 0.23434, 0.72357, 0.16333,
 11:24:00.666,e8:9e:2c:53:09:e3, 2024-07-06 21:58:05:305, 0.971, -0.033, -0.18, 1.343, 0.977, 0.488, -159.483, -80.338, 125.821, -41.425, -42.658, 46.942, 28.91, -0.62827, 0.23434, 0.72357, 0.16333,
 11:24:00.785,e8:9e:2c:53:09:e3, 2024-07-06 21:58:05:405, 0.97, -0.033, -0.18, 1.709, 0.732, 0.549, -159.472, -80.343, 125.425, -41.425, -42.658, 46.942, 28.91, -0.62659, 0.24219, 0.72098, 0.16971,
 11:24:00.874,e8:9e:2c:53:09:e3, 2024-07-06 21:58:05:505, 0.969, -0.033, -0.179, 1.709, 0.793, 0.671, -159.445, -80.338, 125.024, -41.425, -42.658, 46.942, 28.91, -0.62659, 0.24219, 0.72098, 0.16971,
 11:24:00.993,e8:9e:2c:53:09:e3, 2024-07-06 21:58:05:605, 0.972, -0.034, -0.18, 2.258, 0.61, 0.671, -159.39, -80.316, 124.64, -41.425, -42.483, 46.892, 28.91, -0.62494, 0.24872, 0.71896, 0.17484,
 11:24:01.069,e8:9e:2c:53:09:e3, 2024-07-06 21:58:05:705, 0.971, -0.035, -0.18, 0.244, 0.61, 0.916, -159.318, -80.283, 124.189, -41.425, -42.483, 46.892, 28.91, -0.62494, 0.24872, 0.71896, 0.17484,
 11:24:01.189,e8:9e:2c:53:09:e3, 2024-07-06 21:58:05:805, 0.97, -0.034, -0.184, 1.709, 0.61, 0, -159.434, -80.261, 123.909, -41.425, -42.483, 46.892, 28.91, -0.62494, 0.24872, 0.71896, 0.17484,
 11:24:01.265,e8:9e:2c:53:09:e3, 2024-07-06 21:58:05:905, 0.969, -0.03, -0.182, 0.732, 1.038, -0.061, -159.807, -80.288, 123.887, -41.317, -42.725, 46.858, 28.91, -0.62494, 0.24872, 0.71896, 0.17484,
 11:24:01.384,e8:9e:2c:53:09:e3, 2024-07-06 21:58:06:005, 0.969, -0.028, -0.183, 0.793, 1.221, 0.488, -160.005, -80.327, 123.64, -41.317, -42.725, 46.858, 28.91, -0.62253, 0.25656, 0.71628, 0.18286,
 11:24:01.474,e8:9e:2c:53:09:e3, 2024-07-06 21:58:06:105, 0.97, -0.032, -0.179, 1.77, 0.854, 1.16, -159.824, -80.332, 123.008, -41.317, -42.725, 46.858, 28.91, -0.62253, 0.25656, 0.71628, 0.18286,
 11:24:01.593,e8:9e:2c:53:09:e3, 2024-07-06 21:58:06:205, 0.972, -0.035, -0.18, 2.258, 0.427, 0.977, -159.51, -80.288, 122.333, -41.400, -42.617, 46.958, 28.91, -0.62076, 0.26392, 0.71387, 0.18787,
 11:24:01.684,e8:9e:2c:53:09:e3, 2024-07-06 21:58:06:305, 0.971, -0.032, -0.185, 2.38, 0.488, 0.671, -159.439, -80.239, 121.976, -41.400, -42.617, 46.958, 28.91, -0.62076, 0.26392, 0.71387, 0.18787,
 11:24:01.790,e8:9e:2c:53:09:e3, 2024-07-06 21:58:06:405, 0.972, -0.033, -0.185, -0.488, 1.221, 1.587, -159.186, -80.217, 121.251, -41.400, -42.617, 46.958, 28.91, -0.62076, 0.26392, 0.71387, 0.18787,
 11:24:01.879,e8:9e:2c:53:09:e3, 2024-07-06 21:58:06:505, 0.97, -0.037, -0.184, -0.061, 1.282, 1.892, -158.582, -80.206, 120.103, -41.500, -42.358, 46.742, 28.91, -0.62076, 0.26392, 0.71387, 0.18787,
 11:24:02.000,e8:9e:2c:53:09:e3, 2024-07-06 21:58:06:605, 0.97, -0.04, -0.182, 0.916, 1.465, 0.671, -158.121, -80.239, 119.092, -41.500, -42.358, 46.742, 28.91, -0.61887, 0.27536, 0.70901, 0.1958,
 11:24:02.074,e8:9e:2c:53:09:e3, 2024-07-06 21:58:06:705, 0.969, -0.036, -0.181, 1.648, 2.563, -1.038, -158.242, -80.37, 118.834, -41.500, -42.358, 46.742, 28.91, -0.61887, 0.27536, 0.70901, 0.1958,
 11:24:02.194,e8:9e:2c:53:09:e3, 2024-07-06 21:58:06:805, 0.973, -0.034, -0.173, 1.831, 2.319, 0.183, -158.313, -80.552, 118.531, -41.692, -42.567, 46.908, 28.91, -0.61887, 0.27536, 0.70901, 0.1958,
 11:24:02.300,e8:9e:2c:53:09:e3, 2024-07-06 21:58:06:905, 0.971, -0.039, -0.169, 2.869, 2.136, -0.305, -158.198, -80.678, 118.18, -41.692, -42.567, 46.908, 28.91, -0.61935, 0.27933, 0.70511, 0.20267,
 11:24:02.405,e8:9e:2c:53:09:e3, 2024-07-06 21:58:07:005, 0.971, -0.03, -0.17, 1.77, 1.526, -0.061, -158.434, -80.821, 118.141, -41.692, -42.567, 46.908, 28.91, -0.61935, 0.27933, 0.70511, 0.20267,
 11:24:02.481,e8:9e:2c:53:09:e3, 2024-07-06 21:58:07:105, 0.972, -0.031, -0.169, 1.099, 0, 1.587, -158.445, -80.81, 117.757, -41.850, -42.417, 46.575, 28.91, -0.61935, 0.27933, 0.70511, 0.20267,
 11:24:02.599,e8:9e:2c:53:09:e3, 2024-07-06 21:58:07:205, 0.971, -0.037, -0.173, 1.77, -0.61, 2.014, -158.044, -80.662, 116.933, -41.850, -42.417, 46.575, 28.91, -0.61737, 0.2865, 0.70224, 0.20862,
 11:24:02.674,e8:9e:2c:53:09:e3, 2024-07-06 21:58:07:305, 0.973, -0.038, -0.174, 0.732, -0.977, 2.563, -157.489, -80.464, 115.917, -41.850, -42.417, 46.575, 28.91, -0.61737, 0.2865, 0.70224, 0.20862,
 11:24:02.810,e8:9e:2c:53:09:e3, 2024-07-06 21:58:07:405, 0.97, -0.042, -0.186, 0.061, 0, 1.16, -157.209, -80.261, 115.082, -41.675, -42.267, 46.775, 28.91, -0.61337, 0.29694, 0.69992, 0.21353,
 11:24:02.884,e8:9e:2c:53:09:e3, 2024-07-06 21:58:07:505, 0.97, -0.038, -0.178, 0.977, 0.671, 0.305, -157.385, -80.244, 114.774, -41.675, -42.267, 46.775, 28.91, -0.61337, 0.29694, 0.69992, 0.21353,
 11:24:03.005,e8:9e:2c:53:09:e3, 2024-07-06 21:58:07:605, 0.97, -0.041, -0.18, 0.916, 0.305, 1.282, -157.39, -80.195, 114.318, -41.675, -42.267, 46.775, 28.91, -0.61337, 0.29694, 0.69992, 0.21353,
 11:24:03.081,e8:9e:2c:53:09:e3, 2024-07-06 21:58:07:705, 0.969, -0.042, -0.182, 1.648, 0.793, 0.671, -157.253, -80.151, 113.78, -41.642, -42.325, 46.875, 28.91, -0.61337, 0.29694, 0.69992, 0.21353,
 11:24:03.200,e8:9e:2c:53:09:e3, 2024-07-06 21:58:07:805, 0.97, -0.041, -0.18, 2.991, 0.427, 0.671, -157.187, -80.129, 113.406, -41.642, -42.325, 46.875, 28.91, -0.61053, 0.30515, 0.69696, 0.2197,
 11:24:03.293,e8:9e:2c:53:09:e3, 2024-07-06 21:58:07:905, 0.968, -0.043, -0.184, 3.174, 0.427, 0.427, -157.083, -80.079, 113.104, -41.642, -42.325, 46.875, 28.91, -0.61053, 0.30515, 0.69696, 0.2197,
 11:24:03.425,e8:9e:2c:53:09:e3, 2024-07-06 21:58:08:005, 0.969, -0.044, -0.182, 2.869, 0.671, 0.122, -157.187, -80.079, 112.961, -41.500, -41.933, 47.108, 28.91, -0.6088, 0.3096, 0.69547, 0.22302,
 11:24:03.484,e8:9e:2c:53:09:e3, 2024-07-06 21:58:08:105, 0.97, -0.042, -0.182, 2.258, 0.183, 0.916, -157.209, -80.035, 112.687, -41.500, -41.933, 47.108, 28.91, -0.6088, 0.3096, 0.69547, 0.22302,
 11:24:03.604,e8:9e:2c:53:09:e3, 2024-07-06 21:58:08:205, 0.97, -0.044, -0.185, 1.831, 0.549, 0.61, -157.121, -79.98, 112.269, -41.500, -41.933, 47.108, 28.91, -0.6088, 0.3096, 0.69547, 0.22302,
 11:24:03.695,e8:9e:2c:53:09:e3, 2024-07-06 21:58:08:305, 0.97, -0.042, -0.184, 1.099, 0.488, 0.671, -157.17, -79.953, 111.929, -41.350, -41.592, 47.517, 28.91, -0.6088, 0.3096, 0.69547, 0.22302,
 11:24:03.828,e8:9e:2c:53:09:e3, 2024-07-06 21:58:08:405, 0.966, -0.043, -0.188, -0.244, 0.427, 0.977, -157.187, -79.887, 111.489, -41.350, -41.592, 47.517, 28.91, -0.60556, 0.31787, 0.69269, 0.22876,
 11:24:03.890,e8:9e:2c:53:09:e3, 2024-07-06 21:58:08:505, 0.969, -0.04, -0.184, -2.625, 0.732, 1.282, -157.319, -79.843, 110.951, -41.350, -41.592, 47.517, 28.91, -0.60556, 0.31787, 0.69269, 0.22876,
 11:24:04.009,e8:9e:2c:53:09:e3, 2024-07-06 21:58:08:605, 0.967, -0.048, -0.189, 0.732, 0.305, 1.16, -157.181, -79.761, 110.215, -41.342, -42.092, 47.633, 28.91, -0.60168, 0.32825, 0.68848, 0.23688,
 11:24:04.084,e8:9e:2c:53:09:e3, 2024-07-06 21:58:08:705, 0.968, -0.042, -0.186, 1.892, 1.16, 0.183, -157.209, -79.783, 109.825, -41.342, -42.092, 47.633, 28.91, -0.60168, 0.32825, 0.68848, 0.23688,
 11:24:04.205,e8:9e:2c:53:09:e3, 2024-07-06 21:58:08:805, 0.968, -0.043, -0.186, 2.747, 0.793, 0.427, -157.198, -79.799, 109.512, -41.342, -42.092, 47.633, 28.91, -0.60168, 0.32825, 0.68848, 0.23688,
 11:24:04.309,e8:9e:2c:53:09:e3, 2024-07-06 21:58:08:905, 0.968, -0.044, -0.187, 2.625, 0.549, 0.854, -157.072, -79.783, 109.127, -41.333, -41.783, 47.575, 28.91, -0.60168, 0.32825, 0.68848, 0.23688,
 11:24:04.415,e8:9e:2c:53:09:e3, 2024-07-06 21:58:09:005, 0.968, -0.045, -0.188, 2.136, 0.732, 0.732, -156.901, -79.744, 108.66, -41.333, -41.783, 47.575, 28.91, -0.59991, 0.33395, 0.68576, 0.24127,
 11:24:04.489,e8:9e:2c:53:09:e3, 2024-07-06 21:58:09:105, 0.968, -0.044, -0.188, 1.404, 1.099, 0.549, -156.819, -79.744, 108.21, -41.333, -41.783, 47.575, 28.91, -0.59991, 0.33395, 0.68576, 0.24127,
 11:24:04.609,e8:9e:2c:53:09:e3, 2024-07-06 21:58:09:205, 0.968, -0.042, -0.189, 0.061, 1.343, 0.549, -156.907, -79.783, 107.77, -41.283, -41.875, 47.450, 28.91, -0.59738, 0.34177, 0.68146, 0.24872,
 11:24:04.698,e8:9e:2c:53:09:e3, 2024-07-06 21:58:09:305, 0.968, -0.044, -0.187, 0.854, 1.404, 0.61, -156.857, -79.832, 107.166, -41.283, -41.875, 47.450, 28.91, -0.59738, 0.34177, 0.68146, 0.24872,
 11:24:04.819,e8:9e:2c:53:09:e3, 2024-07-06 21:58:09:405, 0.969, -0.043, -0.185, 1.709, 1.343, 0.671, -156.764, -79.871, 106.672, -41.283, -41.875, 47.450, 28.91, -0.59738, 0.34177, 0.68146, 0.24872,
 11:24:04.895,e8:9e:2c:53:09:e3, 2024-07-06 21:58:09:505, 0.969, -0.045, -0.185, 2.075, 1.099, 0.793, -156.544, -79.887, 106.1, -41.383, -41.908, 47.408, 28.91, -0.59738, 0.34177, 0.68146, 0.24872,
 11:24:05.014,e8:9e:2c:53:09:e3, 2024-07-06 21:58:09:605, 0.97, -0.044, -0.183, 2.197, 0.916, 0.61, -156.401, -79.904, 105.639, -41.383, -41.908, 47.408, 28.91, -0.59558, 0.34857, 0.67731, 0.25476,
 11:24:05.104,e8:9e:2c:53:09:e3, 2024-07-06 21:58:09:705, 0.969, -0.045, -0.184, 2.014, 0.488, 0.916, -156.259, -79.876, 105.156, -41.383, -41.908, 47.408, 28.91, -0.59558, 0.34857, 0.67731, 0.25476,
 11:24:05.225,e8:9e:2c:53:09:e3, 2024-07-06 21:58:09:805, 0.969, -0.046, -0.185, 1.648, 0.488, 0.916, -156.143, -79.832, 104.694, -41.500, -41.600, 47.725, 28.91, -0.59323, 0.35513, 0.67432, 0.25909,
 11:24:05.298,e8:9e:2c:53:09:e3, 2024-07-06 21:58:09:905, 0.968, -0.047, -0.186, 1.648, 0.61, 0.854, -156, -79.788, 104.178, -41.500, -41.600, 47.725, 28.91, -0.59323, 0.35513, 0.67432, 0.25909,
 11:24:05.435,e8:9e:2c:53:09:e3, 2024-07-06 21:58:10:005, 0.969, -0.047, -0.186, 1.282, 0.854, 0.61, -155.945, -79.772, 103.744, -41.500, -41.600, 47.725, 28.91, -0.59323, 0.35513, 0.67432, 0.25909,
 11:24:05.495,e8:9e:2c:53:09:e3, 2024-07-06 21:58:10:105, 0.969, -0.047, -0.187, 0.854, 1.099, 0.488, -155.978, -79.783, 103.354, -41.225, -41.550, 47.383, 28.91, -0.59323, 0.35513, 0.67432, 0.25909,
 11:24:05.614,e8:9e:2c:53:09:e3, 2024-07-06 21:58:10:205, 0.967, -0.048, -0.184, 0.061, 1.465, 0.244, -156.11, -79.827, 103.008, -41.225, -41.550, 47.383, 28.91, -0.59009, 0.36313, 0.66992, 0.26651,
 11:24:05.705,e8:9e:2c:53:09:e3, 2024-07-06 21:58:10:305, 0.969, -0.043, -0.183, -0.549, 1.465, 0.427, -156.275, -79.893, 102.623, -41.225, -41.550, 47.383, 28.91, -0.59009, 0.36313, 0.66992, 0.26651,
 11:24:05.823,e8:9e:2c:53:09:e3, 2024-07-06 21:58:10:405, 0.969, -0.045, -0.184, 0.916, 1.099, 0.244, -156.346, -79.92, 102.228, -41.458, -41.900, 47.183, 28.91, -0.58731, 0.36984, 0.66574, 0.27374,
 11:24:05.900,e8:9e:2c:53:09:e3, 2024-07-06 21:58:10:505, 0.969, -0.044, -0.183, 1.953, 0.549, 0.732, -156.396, -79.926, 101.904, -41.458, -41.900, 47.183, 28.91, -0.58731, 0.36984, 0.66574, 0.27374,
 11:24:06.018,e8:9e:2c:53:09:e3, 2024-07-06 21:58:10:605, 0.969, -0.045, -0.185, 2.197, 0.427, 0.671, -156.33, -79.882, 101.525, -41.458, -41.900, 47.183, 28.91, -0.58731, 0.36984, 0.66574, 0.27374,
 11:24:06.109,e8:9e:2c:53:09:e3, 2024-07-06 21:58:10:705, 0.97, -0.045, -0.185, 2.136, 0.366, 0.793, -156.297, -79.838, 101.162, -41.333, -41.600, 47.483, 28.91, -0.58731, 0.36984, 0.66574, 0.27374,
 11:24:06.229,e8:9e:2c:53:09:e3, 2024-07-06 21:58:10:805, 0.969, -0.045, -0.188, 1.526, 0.549, 0.671, -156.259, -79.783, 100.783, -41.333, -41.600, 47.483, 28.91, -0.5842, 0.37686, 0.6626, 0.27841,
 11:24:06.305,e8:9e:2c:53:09:e3, 2024-07-06 21:58:10:905, 0.97, -0.044, -0.185, 0.366, 1.038, 0.488, -156.363, -79.783, 100.399, -41.333, -41.600, 47.483, 28.91, -0.5842, 0.37686, 0.6626, 0.27841,
 11:24:06.425,e8:9e:2c:53:09:e3, 2024-07-06 21:58:11:005, 0.967, -0.047, -0.186, 1.038, 0.854, 0.305, -156.445, -79.794, 100.014, -41.358, -41.708, 47.675, 28.91, -0.58087, 0.38388, 0.65857, 0.28531,
 11:24:06.515,e8:9e:2c:53:09:e3, 2024-07-06 21:58:11:105, 0.968, -0.043, -0.185, 1.831, 0.732, 0.122, -156.665, -79.816, 99.849, -41.358, -41.708, 47.675, 28.91, -0.58087, 0.38388, 0.65857, 0.28531,
 11:24:06.634,e8:9e:2c:53:09:e3, 2024-07-06 21:58:11:205, 0.968, -0.047, -0.187, 1.465, 0.732, 0.183, -156.824, -79.799, 99.668, -41.358, -41.708, 47.675, 28.91, -0.58087, 0.38388, 0.65857, 0.28531,
 11:24:06.709,e8:9e:2c:53:09:e3, 2024-07-06 21:58:11:305, 0.968, -0.042, -0.188, 0.977, 1.16, -0.305, -157.198, -79.832, 99.646, -41.283, -41.850, 47.517, 28.91, -0.58087, 0.38388, 0.65857, 0.28531,
 11:24:06.844,e8:9e:2c:53:09:e3, 2024-07-06 21:58:11:405, 0.968, -0.04, -0.186, 0.916, 1.282, 0.305, -157.473, -79.887, 99.492, -41.283, -41.850, 47.517, 28.91, -0.57739, 0.38989, 0.655, 0.29233,
 11:24:06.905,e8:9e:2c:53:09:e3, 2024-07-06 21:58:11:505, 0.969, -0.041, -0.185, 0, 1.16, 1.038, -157.418, -79.915, 98.926, -41.283, -41.850, 47.517, 28.91, -0.57739, 0.38989, 0.655, 0.29233,
 11:24:07.025,e8:9e:2c:53:09:e3, 2024-07-06 21:58:11:605, 0.969, -0.047, -0.187, -0.61, 1.282, 0.244, -157.538, -79.937, 98.416, -41.450, -42.217, 47.283, 28.91, -0.57352, 0.39822, 0.64941, 0.30106,
 11:24:07.114,e8:9e:2c:53:09:e3, 2024-07-06 21:58:11:705, 0.971, -0.04, -0.181, -0.122, 1.526, -0.061, -157.857, -80.019, 98.163, -41.450, -42.217, 47.283, 28.92, -0.57352, 0.39822, 0.64941, 0.30106,
 11:24:07.235,e8:9e:2c:53:09:e3, 2024-07-06 21:58:11:805, 0.968, -0.037, -0.182, 0.732, 1.465, 0.244, -158.104, -80.09, 97.965, -41.450, -42.217, 47.283, 28.92, -0.57352, 0.39822, 0.64941, 0.30106,
 11:24:07.309,e8:9e:2c:53:09:e3, 2024-07-06 21:58:11:905, 0.97, -0.041, -0.181, 1.099, 1.099, 0.977, -158.033, -80.123, 97.471, -41.450, -42.483, 47.217, 28.92, -0.57352, 0.39822, 0.64941, 0.30106,
 11:24:07.432,e8:9e:2c:53:09:e3, 2024-07-06 21:58:12:005, 0.97, -0.038, -0.181, 2.136, 0.977, 0.549, -157.906, -80.129, 96.987, -41.450, -42.483, 47.217, 28.92, -0.57037, 0.40512, 0.64438, 0.30859,
 11:24:07.519,e8:9e:2c:53:09:e3, 2024-07-06 21:58:12:105, 0.972, -0.038, -0.181, 2.197, 0.793, 0, -158, -80.145, 96.757, -41.450, -42.483, 47.217, 28.92, -0.57037, 0.40512, 0.64438, 0.30859,
 11:24:07.638,e8:9e:2c:53:09:e3, 2024-07-06 21:58:12:205, 0.971, -0.037, -0.187, 1.587, 1.343, -0.244, -158.286, -80.184, 96.74, -41.292, -42.408, 47.142, 28.92, -0.56815, 0.40897, 0.6412, 0.31418,
 11:24:07.715,e8:9e:2c:53:09:e3, 2024-07-06 21:58:12:305, 0.97, -0.04, -0.178, -0.671, 2.991, -0.916, -158.67, -80.359, 96.751, -41.292, -42.408, 47.142, 28.92, -0.56815, 0.40897, 0.6412, 0.31418,
 11:24:07.835,e8:9e:2c:53:09:e3, 2024-07-06 21:58:12:405, 0.971, -0.03, -0.167, 0.854, 2.014, 1.16, -158.643, -80.546, 96.218, -41.292, -42.408, 47.142, 28.92, -0.56815, 0.40897, 0.6412, 0.31418,
 11:24:07.910,e8:9e:2c:53:09:e3, 2024-07-06 21:58:12:505, 0.973, -0.037, -0.176, 1.648, -0.183, 2.991, -157.841, -80.486, 94.966, -41.717, -42.442, 46.800, 28.92, -0.56815, 0.40897, 0.6412, 0.31418,
 11:24:08.044,e8:9e:2c:53:09:e3, 2024-07-06 21:58:12:605, 0.969, -0.04, -0.177, 1.77, 0.183, 2.869, -156.775, -80.305, 93.472, -41.717, -42.442, 46.800, 28.92, -0.56543, 0.41837, 0.63422, 0.3208,
 11:24:08.135,e8:9e:2c:53:09:e3, 2024-07-06 21:58:12:705, 0.971, -0.044, -0.179, 1.648, 0.305, 2.197, -155.94, -80.184, 92.197, -41.717, -42.442, 46.800, 28.92, -0.56543, 0.41837, 0.63422, 0.3208,
 11:24:08.239,e8:9e:2c:53:09:e3, 2024-07-06 21:58:12:805, 0.969, -0.047, -0.181, 2.075, 0.244, 2.258, -155.215, -80.068, 91.055, -41.783, -41.925, 47.025, 28.92, -0.56262, 0.42798, 0.62872, 0.32382,
 11:24:08.315,e8:9e:2c:53:09:e3, 2024-07-06 21:58:12:905, 0.97, -0.051, -0.181, 1.526, 0.549, 1.892, -154.534, -79.969, 89.94, -41.783, -41.925, 47.025, 28.92, -0.56262, 0.42798, 0.62872, 0.32382,
 11:24:08.435,e8:9e:2c:53:09:e3, 2024-07-06 21:58:13:005, 0.968, -0.05, -0.184, 1.77, 1.038, 1.282, -154.034, -79.915, 89.028, -41.783, -41.925, 47.025, 28.92, -0.56262, 0.42798, 0.62872, 0.32382,
 11:24:08.525,e8:9e:2c:53:09:e3, 2024-07-06 21:58:13:105, 0.971, -0.055, -0.178, 0.671, 1.465, 1.038, -153.627, -79.931, 88.149, -41.967, -41.450, 47.092, 28.92, -0.56262, 0.42798, 0.62872, 0.32382,
 11:24:08.644,e8:9e:2c:53:09:e3, 2024-07-06 21:58:13:205, 0.968, -0.053, -0.179, 0.854, 1.404, 0.488, -153.446, -79.975, 87.512, -41.967, -41.450, 47.092, 28.92, -0.55972, 0.43631, 0.62247, 0.3298,
 11:24:08.720,e8:9e:2c:53:09:e3, 2024-07-06 21:58:13:305, 0.97, -0.053, -0.176, 0.793, 1.282, 0.305, -153.479, -80.03, 87.1, -41.967, -41.450, 47.092, 28.92, -0.55972, 0.43631, 0.62247, 0.3298,
 11:24:08.839,e8:9e:2c:53:09:e3, 2024-07-06 21:58:13:405, 0.969, -0.05, -0.177, 1.465, 0.549, 0.732, -153.528, -80.035, 86.726, -41.975, -41.508, 46.817, 28.92, -0.55624, 0.44272, 0.61774, 0.33594,
 11:24:08.929,e8:9e:2c:53:09:e3, 2024-07-06 21:58:13:505, 0.97, -0.052, -0.179, 1.16, 0.61, 0.854, -153.468, -79.991, 86.248, -41.975, -41.508, 46.817, 28.92, -0.55624, 0.44272, 0.61774, 0.33594,
 11:24:09.049,e8:9e:2c:53:09:e3, 2024-07-06 21:58:13:605, 0.97, -0.053, -0.178, 1.16, 0.916, 0.671, -153.413, -79.98, 85.759, -41.975, -41.508, 46.817, 28.92, -0.55624, 0.44272, 0.61774, 0.33594,
 11:24:09.125,e8:9e:2c:53:09:e3, 2024-07-06 21:58:13:705, 0.971, -0.052, -0.179, 1.038, 1.038, 0.183, -153.495, -79.997, 85.419, -41.983, -41.450, 46.858, 28.92, -0.55624, 0.44272, 0.61774, 0.33594,
 11:24:09.243,e8:9e:2c:53:09:e3, 2024-07-06 21:58:13:805, 0.969, -0.051, -0.178, 1.099, 1.038, 0.244, -153.671, -80.03, 85.172, -41.983, -41.450, 46.858, 28.92, -0.55228, 0.44962, 0.61267, 0.34256,
 11:24:09.333,e8:9e:2c:53:09:e3, 2024-07-06 21:58:13:905, 0.971, -0.048, -0.179, 0.916, 1.282, 0.122, -153.825, -80.068, 84.908, -41.983, -41.450, 46.858, 28.92, -0.55228, 0.44962, 0.61267, 0.34256,
 11:24:09.470,e8:9e:2c:53:09:e3, 2024-07-06 21:58:14:005, 0.969, -0.049, -0.176, 1.221, 0.732, 0.793, -153.858, -80.09, 84.485, -41.992, -41.708, 46.858, 28.92, -0.54852, 0.4559, 0.60782, 0.34888,
 11:24:09.528,e8:9e:2c:53:09:e3, 2024-07-06 21:58:14:105, 0.969, -0.05, -0.179, 1.465, 0.427, 0.793, -153.825, -80.057, 84.029, -41.992, -41.708, 46.858, 28.92, -0.54852, 0.4559, 0.60782, 0.34888,
 11:24:09.648,e8:9e:2c:53:09:e3, 2024-07-06 21:58:14:205, 0.969, -0.05, -0.18, 1.404, 0.183, 0.854, -153.869, -80.008, 83.672, -41.992, -41.708, 46.858, 28.92, -0.54852, 0.4559, 0.60782, 0.34888,
 11:24:09.725,e8:9e:2c:53:09:e3, 2024-07-06 21:58:14:305, 0.969, -0.052, -0.18, 1.282, 0.366, 1.038, -153.864, -79.953, 83.249, -41.975, -41.658, 46.742, 28.92, -0.54852, 0.4559, 0.60782, 0.34888,
 11:24:09.845,e8:9e:2c:53:09:e3, 2024-07-06 21:58:14:405, 0.969, -0.052, -0.18, 1.892, 0.488, 0.793, -153.787, -79.898, 82.755, -41.975, -41.658, 46.742, 28.92, -0.54379, 0.46399, 0.60275, 0.35437,
 11:24:09.934,e8:9e:2c:53:09:e3, 2024-07-06 21:58:14:505, 0.971, -0.053, -0.182, 1.465, 0.61, 1.038, -153.66, -79.849, 82.233, -41.975, -41.658, 46.742, 28.92, -0.54379, 0.46399, 0.60275, 0.35437,
 11:24:10.055,e8:9e:2c:53:09:e3, 2024-07-06 21:58:14:605, 0.968, -0.054, -0.184, 1.221, 2.075, 0.122, -153.534, -79.871, 81.667, -41.992, -41.533, 47.092, 28.92, -0.5408, 0.46964, 0.59735, 0.3606,
 11:24:10.129,e8:9e:2c:53:09:e3, 2024-07-06 21:58:14:705, 0.975, -0.051, -0.183, 0, 4.272, -1.099, -153.534, -80.096, 81.211, -41.992, -41.533, 47.092, 28.92, -0.5408, 0.46964, 0.59735, 0.3606,
 11:24:10.250,e8:9e:2c:53:09:e3, 2024-07-06 21:58:14:805, 0.977, -0.051, -0.181, 1.465, 7.812, -5.127, -154.188, -80.623, 81.442, -41.992, -41.533, 47.092, 28.92, -0.5408, 0.46964, 0.59735, 0.3606,
 11:24:10.339,e8:9e:2c:53:09:e3, 2024-07-06 21:58:14:905, 0.974, -0.025, -0.149, 2.014, 7.08, -6.165, -156.292, -81.53, 83.337, -42.500, -42.525, 45.942, 28.92, -0.5408, 0.46964, 0.59735, 0.3606,
 11:24:10.460,e8:9e:2c:53:09:e3, 2024-07-06 21:58:15:005, 0.976, -0.019, -0.142, 0.427, 2.93, -2.258, -158.231, -82.057, 84.886, -42.500, -42.525, 45.942, 28.92, -0.54019, 0.46298, 0.59146, 0.37933,
 11:24:10.535,e8:9e:2c:53:09:e3, 2024-07-06 21:58:15:105, 0.977, -0.026, -0.151, 0.183, -0.549, 2.258, -158.461, -82.051, 84.529, -42.500, -42.525, 45.942, 28.92, -0.54019, 0.46298, 0.59146, 0.37933,
 11:24:10.654,e8:9e:2c:53:09:e3, 2024-07-06 21:58:15:205, 0.976, -0.032, -0.155, -0.244, -0.61, 1.343, -158.11, -81.854, 83.496, -42.683, -43.100, 45.542, 28.92, -0.53333, 0.47263, 0.58548, 0.38638,
 11:24:10.745,e8:9e:2c:53:09:e3, 2024-07-06 21:58:15:305, 0.976, -0.022, -0.152, 0.854, 0.793, -0.366, -158.862, -81.832, 83.705, -42.683, -43.100, 45.542, 28.92, -0.53333, 0.47263, 0.58548, 0.38638,
 11:24:10.865,e8:9e:2c:53:09:e3, 2024-07-06 21:58:15:405, 0.979, -0.024, -0.157, 1.831, 0.122, 1.16, -159.164, -81.804, 83.584, -42.683, -43.100, 45.542, 28.92, -0.53333, 0.47263, 0.58548, 0.38638,
 11:24:10.940,e8:9e:2c:53:09:e3, 2024-07-06 21:58:15:505, 0.978, -0.032, -0.165, 0.366, 1.038, -0.671, -159.379, -81.755, 83.282, -42.475, -43.517, 45.683, 28.92, -0.53333, 0.47263, 0.58548, 0.38638,
 11:24:11.059,e8:9e:2c:53:09:e3, 2024-07-06 21:58:15:605, 0.958, -0.016, -0.16, -7.874, 3.113, -1.221, -160.79, -81.92, 83.853, -42.475, -43.517, 45.683, 28.92, -0.52606, 0.48038, 0.57938, 0.39581,
 11:24:11.134,e8:9e:2c:53:09:e3, 2024-07-06 21:58:15:705, 0.981, -0.075, -0.167, 0.793, 1.526, -0.244, -162.9, -82.156, 84.864, -42.475, -43.517, 45.683, 28.92, -0.52606, 0.48038, 0.57938, 0.39581,
 11:24:11.255,e8:9e:2c:53:09:e3, 2024-07-06 21:58:15:805, 0.97, -0.076, -0.163, -5.798, 1.099, 5.554, -162.488, -82.084, 83.562, -42.350, -44.675, 44.525, 28.92, -0.51547, 0.49481, 0.56741, 0.40906,
 11:24:11.343,e8:9e:2c:53:09:e3, 2024-07-06 21:58:15:905, 1.057, -0.01, -0.145, 0.854, -1.587, 5.432, -160.334, -81.755, 80.436, -42.350, -44.675, 44.525, 28.92, -0.51547, 0.49481, 0.56741, 0.40906,
 11:24:11.465,e8:9e:2c:53:09:e3, 2024-07-06 21:58:16:005, 0.984, 0.274, -0.072, 23.865, -0.305, -4.395, -158.637, -81.562, 78.893, -42.350, -44.675, 44.525, 28.92, -0.51547, 0.49481, 0.56741, 0.40906,
 11:24:11.554,e8:9e:2c:53:09:e3, 2024-07-06 21:58:16:105, 0.985, 0.029, -0.148, 6.897, 1.831, -3.479, -161.351, -81.909, 80.662, -42.500, -44.467, 45.067, 28.92, -0.51547, 0.49481, 0.56741, 0.40906,
 11:24:11.659,e8:9e:2c:53:09:e3, 2024-07-06 21:58:16:205, 0.996, 0.05, -0.12, -9.094, 5.615, -6.104, -164.35, -82.216, 82.595, -42.500, -44.467, 45.067, 28.92, -0.50803, 0.5011, 0.56073, 0.4198,
 11:24:11.749,e8:9e:2c:53:09:e3, 2024-07-06 21:58:16:305, 0.96, -0.059, -0.179, -6.165, 5.432, -5.554, -169.047, -82.782, 85.963, -42.500, -44.467, 45.067, 28.92, -0.50803, 0.5011, 0.56073, 0.4198,
 11:24:11.883,e8:9e:2c:53:09:e3, 2024-07-06 21:58:16:405, 0.97, 0.017, -0.126, -9.521, 3.723, 0.854, -172.623, -83.309, 88.303, -42.742, -48.883, 41.933, 28.92, -0.49326, 0.50916, 0.54517, 0.44736,
 11:24:11.945,e8:9e:2c:53:09:e3, 2024-07-06 21:58:16:505, 1.006, 0.031, -0.115, -2.38, 1.831, 3.113, -172.343, -83.48, 86.638, -42.742, -48.883, 41.933, 28.92, -0.49326, 0.50916, 0.54517, 0.44736,
 11:24:12.064,e8:9e:2c:53:09:e3, 2024-07-06 21:58:16:605, 0.99, -0.021, -0.15, 1.587, 7.874, -3.784, -172.469, -83.864, 85.825, -42.742, -48.883, 41.933, 28.92, -0.49326, 0.50916, 0.54517, 0.44736,
 11:24:12.140,e8:9e:2c:53:09:e3, 2024-07-06 21:58:16:705, 1.024, 0.025, -0.108, 2.075, 12.817, -6.104, -177.275, -84.88, 90.412, -42.717, -52.325, 37.617, 28.92, -0.49326, 0.50916, 0.54517, 0.44736,
 11:24:12.273,e8:9e:2c:53:09:e3, 2024-07-06 21:58:16:805, 1.375, 0.007, -0.112, 0.977, 22.4, -16.968, 168.069, -86.237, 105.084, -42.717, -52.325, 37.617, 28.92, -0.49332, 0.49875, 0.53308, 0.47287,
 11:24:12.349,e8:9e:2c:53:09:e3, 2024-07-06 21:58:16:905, 0.789, 0.005, -0.127, -46.753, 43.762, -50.415, 99.207, -85.995, 173.529, -42.717, -52.325, 37.617, 28.92, -0.49332, 0.49875, 0.53308, 0.47287,
 11:24:12.469,e8:9e:2c:53:09:e3, 2024-07-06 21:58:17:005, 0.588, 0.573, -0.16, 20.813, 20.569, -69.946, 70.521, -78.942, -155.841, -39.450, -64.000, 25.375, 28.92, -0.48965, 0.40961, 0.55081, 0.53757,
 11:24:12.544,e8:9e:2c:53:09:e3, 2024-07-06 21:58:17:105, 1.301, -0.275, -0.141, 27.039, -71.106, 80.688, 86.127, -81.233, -168.113, -39.450, -64.000, 25.375, 28.92, -0.48965, 0.40961, 0.55081, 0.53757,
 11:24:12.679,e8:9e:2c:53:09:e3, 2024-07-06 21:58:17:205, 0.967, 0.583, 0.146, 41.931, -62.744, 81.482, -170.612, -81.299, 98.135, -39.450, -64.000, 25.375, 28.92, -0.48965, 0.40961, 0.55081, 0.53757,
 11:24:12.754,e8:9e:2c:53:09:e3, 2024-07-06 21:58:17:305, 0.982, -0.712, -0.234, 33.997, 0.183, -19.653, -173.188, -79.623, 99.635, -40.908, -46.958, 42.925, 28.92, -0.48965, 0.40961, 0.55081, 0.53757,
 11:24:12.875,e8:9e:2c:53:09:e3, 2024-07-06 21:58:17:405, 0.976, -0.078, -0.128, 8.667, -2.441, -19.287, 168.651, -79.568, 116.378, -40.908, -46.958, 42.925, 28.92, -0.50244, 0.45706, 0.61627, 0.39844,
 11:24:12.948,e8:9e:2c:53:09:e3, 2024-07-06 21:58:17:505, 0.998, 0.067, -0.199, -3.235, -13.672, -4.333, 163.735, -78.503, 120.388, -40.908, -46.958, 42.925, 28.92, -0.50244, 0.45706, 0.61627, 0.39844,
 11:24:13.068,e8:9e:2c:53:09:e3, 2024-07-06 21:58:17:605, 0.951, 0.078, -0.218, -19.409, -2.93, -2.38, 162.279, -77.756, 120.059, -36.775, -52.233, 42.342, 28.92, -0.46899, 0.47156, 0.61111, 0.42908,
 11:24:13.158,e8:9e:2c:53:09:e3, 2024-07-06 21:58:17:705, 0.947, 0.08, -0.17, -27.832, 12.756, -12.695, 154.215, -78.107, 125.618, -36.775, -52.233, 42.342, 28.92, -0.46899, 0.47156, 0.61111, 0.42908,
 11:24:13.294,e8:9e:2c:53:09:e3, 2024-07-06 21:58:17:805, 0.982, 0.151, -0.126, -8.728, 7.263, -3.723, 147.068, -78.492, 131.688, -36.775, -52.233, 42.342, 28.92, -0.46899, 0.47156, 0.61111, 0.42908,
 11:24:13.356,e8:9e:2c:53:09:e3, 2024-07-06 21:58:17:905, 1.239, 0.117, -0.155, -9.949, 19.409, -11.047, 142.289, -79.124, 135.67, -31.400, -61.408, 32.158, 28.92, -0.46899, 0.47156, 0.61111, 0.42908,
 11:24:13.474,e8:9e:2c:53:09:e3, 2024-07-06 21:58:18:005, 1.361, 0.1, -0.316, -29.968, 63.293, -59.814, 114.906, -78.865, 163.07, -31.400, -61.408, 32.158, 28.92, -0.46765, 0.44144, 0.59442, 0.4827,
 11:24:13.563,e8:9e:2c:53:09:e3, 2024-07-06 21:58:18:105, 0.541, -0.315, -0.261, -76.66, 90.271, -97.168, 80.057, -71.867, -162.054, -31.400, -61.408, 32.158, 28.92, -0.46765, 0.44144, 0.59442, 0.4827,
 11:24:13.685,e8:9e:2c:53:09:e3, 2024-07-06 21:58:18:205, 0.405, 0.395, -0.101, -80.811, 30.396, -72.571, 74.251, -59.727, -149.892, -19.400, -76.883, 15.950, 28.92, -0.4617, 0.25806, 0.58157, 0.61798,
 11:24:13.773,e8:9e:2c:53:09:e3, 2024-07-06 21:58:18:305, 1.151, -0.225, -0.096, 22.4, -68.481, 96.13, 68.538, -61.6, -150.337, -19.400, -76.883, 15.950, 28.92, -0.4617, 0.25806, 0.58157, 0.61798,
 11:24:13.880,e8:9e:2c:53:09:e3, 2024-07-06 21:58:18:405, 1.515, 0.166, -0.036, 37.048, -117.554, 170.471, 84.551, -78.805, -169.261, -19.400, -76.883, 15.950, 28.92, -0.4617, 0.25806, 0.58157, 0.61798,
 11:24:13.955,e8:9e:2c:53:09:e3, 2024-07-06 21:58:18:505, 1.248, 0.831, 0.172, 76.477, -81.36, 116.15, -156.088, -78.19, 73.328, -42.183, -47.717, 39.358, 28.92, -0.4617, 0.25806, 0.58157, 0.61798,
 11:24:14.074,e8:9e:2c:53:09:e3, 2024-07-06 21:58:18:605, 0.955, -0.279, -0.238, -53.467, 4.272, -54.077, -155.616, -73.927, 70.389, -42.183, -47.717, 39.358, 28.92, -0.47662, 0.565, 0.55389, 0.38303,
 11:24:14.164,e8:9e:2c:53:09:e3, 2024-07-06 21:58:18:705, 0.994, 0.231, -0.2, -0.244, 2.991, -37.598, -176.265, -75.103, 87.182, -42.183, -47.717, 39.358, 28.92, -0.47662, 0.565, 0.55389, 0.38303,
 11:24:14.284,e8:9e:2c:53:09:e3, 2024-07-06 21:58:18:805, 0.965, 0.078, -0.247, -12.573, -2.808, -22.644, 169.113, -74.641, 94.362, -39.308, -50.650, 42.850, 28.92, -0.36612, 0.59009, 0.52679, 0.48999,
 11:24:14.358,e8:9e:2c:53:09:e3, 2024-07-06 21:58:18:905, 0.95, 0.133, -0.167, -12.573, 10.62, -19.47, 157.857, -74.74, 99.509, -39.308, -50.650, 42.850, 28.92, -0.36612, 0.59009, 0.52679, 0.48999,
 11:24:14.480,e8:9e:2c:53:09:e3, 2024-07-06 21:58:19:005, 0.998, 0.12, -0.124, -13.611, 3.174, -5.493, 151.013, -75.004, 101.338, -39.308, -50.650, 42.850, 28.92, -0.36612, 0.59009, 0.52679, 0.48999,
 11:24:14.585,e8:9e:2c:53:09:e3, 2024-07-06 21:58:19:105, 1.032, 0.133, -0.176, -16.541, 12.695, -5.798, 145.706, -75.619, 101.569, -32.125, -62.475, 31.217, 28.92, -0.36612, 0.59009, 0.52679, 0.48999,
 11:24:14.689,e8:9e:2c:53:09:e3, 2024-07-06 21:58:19:205, 1.451, 0.042, -0.203, -16.785, 48.279, -38.757, 129.71, -76.525, 113.648, -32.125, -62.475, 31.217, 28.92, -0.28751, 0.61053, 0.45139, 0.58374,
 11:24:14.764,e8:9e:2c:53:09:e3, 2024-07-06 21:58:19:305, 1.137, -0.01, -0.161, -45.044, 85.632, -85.388, 95.581, -73.548, 145.734, -32.125, -62.475, 31.217, 28.92, -0.28751, 0.61053, 0.45139, 0.58374,
 11:24:14.900,e8:9e:2c:53:09:e3, 2024-07-06 21:58:19:405, 0.266, 0.509, -0.276, 15.747, 69.397, -128.418, 76.761, -62.089, 166.536, -17.808, -77.483, 14.492, 28.92, -0.21811, 0.42322, 0.48901, 0.7308,
 11:24:14.975,e8:9e:2c:53:09:e3, 2024-07-06 21:58:19:505, 0.715, -0.566, 0.004, -71.228, -9.583, 14.893, 71.741, -56.646, 170.706, -17.808, -77.483, 14.492, 28.92, -0.21811, 0.42322, 0.48901, 0.7308,
 11:24:15.095,e8:9e:2c:53:09:e3, 2024-07-06 21:58:19:605, 1.617, -0.141, -0.067, 33.02, -108.704, 149.292, 91.038, -67.198, 159.401, -17.808, -77.483, 14.492, 28.92, -0.21811, 0.42322, 0.48901, 0.7308,
 11:24:15.170,e8:9e:2c:53:09:e3, 2024-07-06 21:58:19:705, 1.216, 0.442, 0.082, 129.395, -128.845, 160.095, 164.372, -73.586, 96.526, -40.417, -55.183, 34.075, 28.92, -0.21811, 0.42322, 0.48901, 0.7308,
 11:24:15.305,e8:9e:2c:53:09:e3, 2024-07-06 21:58:19:805, 0.729, 1.141, 0.466, 61.401, -3.601, -18.555, -162.999, -66.539, 69.703, -40.417, -55.183, 34.075, 28.92, -0.41177, 0.6319, 0.53815, 0.37607,
 11:24:15.365,e8:9e:2c:53:09:e3, 2024-07-06 21:58:19:905, 0.987, 0.1, -0.002, -35.95, 28.503, -59.509, 178.66, -69.109, 86.248, -40.417, -55.183, 34.075, 28.92, -0.41177, 0.6319, 0.53815, 0.37607,
 11:24:15.484,e8:9e:2c:53:09:e3, 2024-07-06 21:58:20:005, 0.973, -0.05, -0.128, -17.212, 0.183, -23.56, 161.087, -69.796, 97.938, -40.000, -49.367, 43.550, 28.92, -0.31973, 0.6033, 0.54156, 0.4903,
 11:24:15.574,e8:9e:2c:53:09:e3, 2024-07-06 21:58:20:105, 0.967, 0.105, -0.136, -10.254, 6.775, -14.709, 153.452, -69.829, 102.206, -40.000, -49.367, 43.550, 28.92, -0.31973, 0.6033, 0.54156, 0.4903,
 11:24:15.695,e8:9e:2c:53:09:e3, 2024-07-06 21:58:20:205, 1.001, 0.144, -0.155, -25.024, 7.324, -10.376, 147.387, -70.263, 105.441, -40.000, -49.367, 43.550, 28.92, -0.31973, 0.6033, 0.54156, 0.4903,
 11:24:15.769,e8:9e:2c:53:09:e3, 2024-07-06 21:58:20:305, 1.026, 0.146, -0.179, -16.541, 13.794, -9.705, 141.18, -71.021, 109.067, -29.975, -62.925, 30.967, 28.92, -0.31973, 0.6033, 0.54156, 0.4903,
 11:24:15.891,e8:9e:2c:53:09:e3, 2024-07-06 21:58:20:405, 1.495, 0.039, -0.219, -10.437, 44.861, -41.199, 129.611, -71.917, 119.476, -29.975, -62.925, 30.967, 28.92, -0.28497, 0.59061, 0.50571, 0.56049,
 11:24:15.980,e8:9e:2c:53:09:e3, 2024-07-06 21:58:20:505, 1.173, 0.025, -0.334, -23.193, 83.435, -98.45, 104.568, -69.159, 146.92, -29.975, -62.925, 30.967, 28.92, -0.28497, 0.59061, 0.50571, 0.56049,
 11:24:16.099,e8:9e:2c:53:09:e3, 2024-07-06 21:58:20:605, 0.315, 0.433, -0.255, -48.523, 62.439, -120.239, 84.6, -58.541, 170.107, -15.717, -77.350, 15.450, 28.92, -0.24866, 0.35214, 0.56274, 0.70523,
 11:24:16.175,e8:9e:2c:53:09:e3, 2024-07-06 21:58:20:705, 0.557, -0.704, 0.033, -81.665, -5.005, -2.808, 76.591, -50.24, 177.171, -15.717, -77.350, 15.450, 28.92, -0.24866, 0.35214, 0.56274, 0.70523,
 11:24:16.295,e8:9e:2c:53:09:e3, 2024-07-06 21:58:20:805, 1.352, -0.096, 0.015, 44.067, -86.67, 142.944, 85.699, -60.145, 166.278, -15.717, -77.350, 15.450, 28.92, -0.24866, 0.35214, 0.56274, 0.70523,
 11:24:16.370,e8:9e:2c:53:09:e3, 2024-07-06 21:58:20:905, 1.467, 0.17, -0.111, 81.238, -137.939, 199.28, 132.001, -75.861, 117.817, -36.917, -60.942, 30.508, 28.92, -0.24866, 0.35214, 0.56274, 0.70523,
 11:24:16.505,e8:9e:2c:53:09:e3, 2024-07-06 21:58:21:005, 1.193, 1.193, 0.283, 48.279, -54.932, 84.29, -162.065, -69.714, 58.31, -36.917, -60.942, 30.508, 28.92, -0.3858, 0.66229, 0.4736, 0.43372,
 11:24:16.579,e8:9e:2c:53:09:e3, 2024-07-06 21:58:21:105, 0.965, -1.229, -0.245, 72.51, 15.015, -58.472, -174.875, -71.653, 70.131, -36.917, -60.942, 30.508, 28.92, -0.3858, 0.66229, 0.4736, 0.43372,
 11:24:16.699,e8:9e:2c:53:09:e3, 2024-07-06 21:58:21:205, 0.974, 0.004, -0.217, -18.433, 2.075, -20.874, 166.63, -73.136, 87.748, -39.600, -48.358, 43.317, 28.92, -0.32748, 0.62216, 0.50113, 0.50443,
 11:24:16.774,e8:9e:2c:53:09:e3, 2024-07-06 21:58:21:305, 0.95, 0.104, -0.259, -21.301, 1.953, -18.494, 157.681, -72.85, 94.741, -39.600, -48.358, 43.317, 28.92, -0.32748, 0.62216, 0.50113, 0.50443,
 11:24:16.895,e8:9e:2c:53:09:e3, 2024-07-06 21:58:21:405, 0.998, 0.108, -0.188, -16.418, 9.766, -17.151, 149.117, -73.207, 103.244, -39.600, -48.358, 43.317, 28.92, -0.32748, 0.62216, 0.50113, 0.50443,
 11:24:16.985,e8:9e:2c:53:09:e3, 2024-07-06 21:58:21:505, 1.078, 0.12, -0.174, -24.17, 8.301, -8.301, 142.652, -73.597, 109.742, -29.075, -62.475, 31.142, 28.92, -0.32748, 0.62216, 0.50113, 0.50443,
 11:24:17.103,e8:9e:2c:53:09:e3, 2024-07-06 21:58:21:605, 1.568, 0.066, -0.271, -21.179, 54.443, -48.523, 128.611, -74.218, 124.695, -29.075, -62.475, 31.142, 28.92, -0.32016, 0.57028, 0.51367, 0.55527,
 11:24:17.179,e8:9e:2c:53:09:e3, 2024-07-06 21:58:21:705, 1.101, -0.127, -0.322, -41.199, 93.018, -115.356, 97.894, -70.175, 158.835, -29.075, -62.475, 31.142, 28.92, -0.32016, 0.57028, 0.51367, 0.55527,
 11:24:17.299,e8:9e:2c:53:09:e3, 2024-07-06 21:58:21:805, 0.284, 0.397, -0.354, -65.43, 59.875, -143.982, 80.969, -55.613, 179.802, -12.733, -78.175, 14.583, 28.92, -0.32016, 0.57028, 0.51367, 0.55527,
 11:24:17.390,e8:9e:2c:53:09:e3, 2024-07-06 21:58:21:905, 0.694, -0.506, 0.01, 55.542, -32.654, 44.861, 72.949, -50.032, -177.803, -12.733, -78.175, 14.583, 28.92, -0.26617, 0.33273, 0.54498, 0.72202,
 11:24:17.509,e8:9e:2c:53:09:e3, 2024-07-06 21:58:22:005, 1.746, -0.237, -0.03, 34.302, -94.849, 218.079, 81.826, -67.665, 174.172, -12.733, -78.175, 14.583, 28.92, -0.26617, 0.33273, 0.54498, 0.72202,
 11:24:17.585,e8:9e:2c:53:09:e3, 2024-07-06 21:58:22:105, 1.573, 0.918, -0.163, 185.73, -156.189, 192.505, -169.519, -78.821, 69.642, -42.083, -46.617, 38.933, 28.92, -0.26617, 0.33273, 0.54498, 0.72202,
 11:24:17.704,e8:9e:2c:53:09:e3, 2024-07-06 21:58:22:205, 0.854, 1.344, 0.889, 20.996, 28.992, -66.467, -145.75, -70.093, 55.338, -42.083, -46.617, 38.933, 28.92, -0.46857, 0.62109, 0.50812, 0.36932,
 11:24:17.795,e8:9e:2c:53:09:e3, 2024-07-06 21:58:22:305, 0.975, 0.255, -0.337, 129.578, 23.804, -55.786, -170.475, -76.069, 79.755, -42.083, -46.617, 38.933, 28.92, -0.46857, 0.62109, 0.50812, 0.36932,
 11:24:17.900,e8:9e:2c:53:09:e3, 2024-07-06 21:58:22:405, 0.995, 0.03, -0.21, 21.973, -7.141, -28.931, 175.638, -76.948, 98.998, -39.217, -49.892, 43.708, 28.92, -0.46857, 0.62109, 0.50812, 0.36932,
 11:24:18.004,e8:9e:2c:53:09:e3, 2024-07-06 21:58:22:505, 0.941, 0.039, -0.222, -18.921, 9.766, -27.1, 164.855, -76.998, 114.428, -39.217, -49.892, 43.708, 28.92, -0.46497, 0.48218, 0.61182, 0.42059,
 11:24:18.109,e8:9e:2c:53:09:e3, 2024-07-06 21:58:22:605, 1.038, 0.111, -0.194, -18.799, 16.296, -21.423, 150.815, -77.448, 133.445, -39.217, -49.892, 43.708, 28.92, -0.46497, 0.48218, 0.61182, 0.42059,
 11:24:18.183,e8:9e:2c:53:09:e3, 2024-07-06 21:58:22:705, 1.165, 0.148, -0.258, -13.977, 28.015, -24.78, 137.214, -77.75, 151.996, -28.492, -62.692, 31.792, 28.92, -0.46497, 0.48218, 0.61182, 0.42059,
