时间,设备名称,片上时间(),加速度X(g),加速度Y(g),加速度Z(g),角速度X(°/s),角速度Y(°/s),角速度Z(°/s),角度X(°),角度Y(°),角度Z(°),磁场X(ʯt),磁场Y(ʯt),磁场Z(ʯt),温度(℃),四元数0(),四元数1(),四元数2(),四元数3()
 11:16:45.555,e8:9e:2c:53:09:e3, 2024-07-06 21:50:53:305, 0.967, -0.03, -0.198, 1.526, 1.038, 1.221, -161.521, -79.552, -62.095, -35.808, -53.175, 36.517, 30.01, 0.21985, 0.70294, -0.30298, 0.60468,
 11:16:45.674,e8:9e:2c:53:09:e3, 2024-07-06 21:50:53:405, 0.967, -0.032, -0.195, 1.343, 1.282, 0.732, -161.301, -79.568, -62.699, -35.808, -53.175, 36.517, 30.01, 0.21985, 0.70294, -0.30298, 0.60468,
 11:16:45.749,e8:9e:2c:53:09:e3, 2024-07-06 21:50:53:505, 0.968, -0.031, -0.193, 0.549, 1.404, 0.793, -161.197, -79.601, -63.177, -36.000, -53.075, 36.467, 30.01, 0.21985, 0.70294, -0.30298, 0.60468,
 11:16:45.854,e8:9e:2c:53:09:e3, 2024-07-06 21:50:53:605, 0.968, -0.033, -0.193, 1.16, 0.977, 0.854, -161.076, -79.607, -63.693, -36.000, -53.075, 36.467, 30.01, 0.22617, 0.69904, -0.31076, 0.60291,
 11:16:45.930,e8:9e:2c:53:09:e3, 2024-07-06 21:50:53:705, 0.966, -0.033, -0.192, -0.061, 1.099, 0.854, -161.01, -79.618, -64.188, -36.000, -53.075, 36.467, 30.01, 0.22617, 0.69904, -0.31076, 0.60291,
 11:16:46.051,e8:9e:2c:53:09:e3, 2024-07-06 21:50:53:805, 0.967, -0.034, -0.192, 0.61, 0.916, 1.16, -160.845, -79.601, -64.792, -36.100, -53.158, 36.433, 30.01, 0.22617, 0.69904, -0.31076, 0.60291,
 11:16:46.126,e8:9e:2c:53:09:e3, 2024-07-06 21:50:53:905, 0.967, -0.033, -0.194, 1.282, 0.977, 0.732, -160.719, -79.59, -65.281, -36.100, -53.158, 36.433, 30.01, 0.23199, 0.69562, -0.3183, 0.60071,
 11:16:46.259,e8:9e:2c:53:09:e3, 2024-07-06 21:50:54:005, 0.966, -0.034, -0.195, 0.61, 0.793, 1.16, -160.642, -79.579, -65.753, -36.100, -53.158, 36.433, 30.01, 0.23199, 0.69562, -0.3183, 0.60071,
 11:16:46.336,e8:9e:2c:53:09:e3, 2024-07-06 21:50:54:105, 0.967, -0.035, -0.195, 1.099, 0.977, 0.977, -160.466, -79.557, -66.363, -36.250, -53.108, 36.425, 30.01, 0.23199, 0.69562, -0.3183, 0.60071,
 11:16:46.440,e8:9e:2c:53:09:e3, 2024-07-06 21:50:54:205, 0.967, -0.036, -0.193, 1.282, 1.099, 0.427, -160.422, -79.574, -66.808, -36.250, -53.108, 36.425, 30.01, 0.23892, 0.69156, -0.32687, 0.59808,
 11:16:46.529,e8:9e:2c:53:09:e3, 2024-07-06 21:50:54:305, 0.967, -0.033, -0.193, 1.587, 0.854, 0.671, -160.411, -79.585, -67.165, -36.250, -53.108, 36.425, 30.01, 0.23892, 0.69156, -0.32687, 0.59808,
 11:16:46.650,e8:9e:2c:53:09:e3, 2024-07-06 21:50:54:405, 0.967, -0.035, -0.195, 1.526, 0.793, 0.793, -160.312, -79.568, -67.615, -36.083, -53.150, 36.475, 30.01, 0.24283, 0.68921, -0.33194, 0.59641,
 11:16:46.725,e8:9e:2c:53:09:e3, 2024-07-06 21:50:54:505, 0.967, -0.034, -0.195, 1.16, 0.671, 0.977, -160.214, -79.547, -68.099, -36.083, -53.150, 36.475, 30.01, 0.24283, 0.68921, -0.33194, 0.59641,
 11:16:46.845,e8:9e:2c:53:09:e3, 2024-07-06 21:50:54:605, 0.965, -0.036, -0.196, 1.343, 0.793, 0.732, -160.104, -79.514, -68.577, -36.083, -53.150, 36.475, 30.01, 0.24283, 0.68921, -0.33194, 0.59641,
 11:16:46.935,e8:9e:2c:53:09:e3, 2024-07-06 21:50:54:705, 0.967, -0.038, -0.196, 0.61, 0.977, 0.732, -160.032, -79.508, -69.038, -36.242, -53.092, 36.192, 30.01, 0.24283, 0.68921, -0.33194, 0.59641,
 11:16:47.070,e8:9e:2c:53:09:e3, 2024-07-06 21:50:54:805, 0.967, -0.037, -0.195, 1.16, 1.16, 0.427, -160.093, -79.536, -69.379, -36.242, -53.092, 36.192, 30.01, 0.24948, 0.6853, -0.34009, 0.59357,
 11:16:47.130,e8:9e:2c:53:09:e3, 2024-07-06 21:50:54:905, 0.967, -0.034, -0.195, 0.793, 1.16, 0.244, -160.23, -79.563, -69.642, -36.242, -53.092, 36.192, 30.01, 0.24948, 0.6853, -0.34009, 0.59357,
 11:16:47.249,e8:9e:2c:53:09:e3, 2024-07-06 21:50:55:005, 0.967, -0.034, -0.194, 1.16, 0.977, 0.244, -160.406, -79.59, -69.857, -36.108, -53.242, 36.117, 30.01, 0.25555, 0.68222, -0.34576, 0.59125,
 11:16:47.341,e8:9e:2c:53:09:e3, 2024-07-06 21:50:55:105, 0.967, -0.034, -0.194, 1.465, 0.916, 0.366, -160.543, -79.601, -70.098, -36.108, -53.242, 36.117, 30.01, 0.25555, 0.68222, -0.34576, 0.59125,
 11:16:47.460,e8:9e:2c:53:09:e3, 2024-07-06 21:50:55:205, 0.966, -0.034, -0.192, 1.587, 0.61, 0.61, -160.604, -79.596, -70.395, -36.108, -53.242, 36.117, 30.01, 0.25555, 0.68222, -0.34576, 0.59125,
 11:16:47.535,e8:9e:2c:53:09:e3, 2024-07-06 21:50:55:305, 0.967, -0.034, -0.194, 1.587, 0.549, 0.916, -160.565, -79.563, -70.785, -36.017, -53.167, 36.208, 30.01, 0.25555, 0.68222, -0.34576, 0.59125,
 11:16:47.656,e8:9e:2c:53:09:e3, 2024-07-06 21:50:55:405, 0.966, -0.036, -0.196, 2.014, 0.549, 0.854, -160.428, -79.514, -71.241, -36.017, -53.167, 36.208, 30.01, 0.26071, 0.67917, -0.35263, 0.58847,
 11:16:47.730,e8:9e:2c:53:09:e3, 2024-07-06 21:50:55:505, 0.966, -0.034, -0.195, 2.319, 0.549, 0.854, -160.28, -79.475, -71.686, -36.017, -53.167, 36.208, 30.01, 0.26071, 0.67917, -0.35263, 0.58847,
 11:16:47.850,e8:9e:2c:53:09:e3, 2024-07-06 21:50:55:605, 0.967, -0.035, -0.197, 1.526, 0.671, 1.038, -160.115, -79.442, -72.18, -36.075, -52.983, 36.292, 30.01, 0.26453, 0.67633, -0.35876, 0.5863,
 11:16:47.940,e8:9e:2c:53:09:e3, 2024-07-06 21:50:55:705, 0.966, -0.038, -0.198, 2.014, 0.793, 0.916, -159.901, -79.415, -72.74, -36.075, -52.983, 36.292, 30.01, 0.26453, 0.67633, -0.35876, 0.5863,
 11:16:48.062,e8:9e:2c:53:09:e3, 2024-07-06 21:50:55:805, 0.968, -0.038, -0.197, 2.563, 0.977, 0.427, -159.78, -79.409, -73.147, -36.075, -52.983, 36.292, 30.01, 0.26453, 0.67633, -0.35876, 0.5863,
 11:16:48.135,e8:9e:2c:53:09:e3, 2024-07-06 21:50:55:905, 0.966, -0.041, -0.198, 2.258, 1.16, 0.122, -159.835, -79.431, -73.345, -36.067, -52.708, 36.650, 30.01, 0.26453, 0.67633, -0.35876, 0.5863,
 11:16:48.255,e8:9e:2c:53:09:e3, 2024-07-06 21:50:56:005, 0.968, -0.034, -0.195, 1.343, 1.038, 0.427, -159.961, -79.464, -73.526, -36.067, -52.708, 36.650, 30.01, 0.26926, 0.67337, -0.36386, 0.58444,
 11:16:48.344,e8:9e:2c:53:09:e3, 2024-07-06 21:50:56:105, 0.967, -0.038, -0.196, 0.488, 1.282, 0.427, -159.961, -79.481, -73.911, -36.067, -52.708, 36.650, 30.01, 0.26926, 0.67337, -0.36386, 0.58444,
 11:16:48.464,e8:9e:2c:53:09:e3, 2024-07-06 21:50:56:205, 0.966, -0.037, -0.194, 0.854, 1.099, 0.244, -160.038, -79.514, -74.251, -35.925, -52.900, 36.467, 30.01, 0.27551, 0.66968, -0.36996, 0.58191,
 11:16:48.540,e8:9e:2c:53:09:e3, 2024-07-06 21:50:56:305, 0.966, -0.036, -0.194, 0.671, 0.977, 0.366, -160.236, -79.541, -74.471, -35.925, -52.900, 36.467, 30.01, 0.27551, 0.66968, -0.36996, 0.58191,
 11:16:48.675,e8:9e:2c:53:09:e3, 2024-07-06 21:50:56:405, 0.967, -0.036, -0.194, 0.366, 0.854, 0.305, -160.428, -79.552, -74.713, -35.925, -52.900, 36.467, 30.01, 0.27551, 0.66968, -0.36996, 0.58191,
 11:16:48.735,e8:9e:2c:53:09:e3, 2024-07-06 21:50:56:505, 0.966, -0.033, -0.194, 0.732, 0.854, 0.122, -160.675, -79.563, -74.888, -36.050, -53.067, 36.450, 30.01, 0.27551, 0.66968, -0.36996, 0.58191,
 11:16:48.869,e8:9e:2c:53:09:e3, 2024-07-06 21:50:56:605, 0.966, -0.033, -0.194, 0.916, 0.793, 0.183, -160.955, -79.574, -75.031, -36.050, -53.067, 36.450, 30.01, 0.28339, 0.66559, -0.37744, 0.57803,
 11:16:48.960,e8:9e:2c:53:09:e3, 2024-07-06 21:50:56:705, 0.968, -0.031, -0.196, 0.305, 1.038, 0.183, -161.219, -79.585, -75.207, -36.050, -53.067, 36.450, 30.01, 0.28339, 0.66559, -0.37744, 0.57803,
 11:16:49.065,e8:9e:2c:53:09:e3, 2024-07-06 21:50:56:805, 0.968, -0.029, -0.196, 0.488, 0.732, 0.488, -161.406, -79.596, -75.449, -35.825, -53.258, 36.342, 30.01, 0.28934, 0.66235, -0.38327, 0.57495,
 11:16:49.140,e8:9e:2c:53:09:e3, 2024-07-06 21:50:56:905, 0.966, -0.033, -0.194, 0.244, 0.977, 0.305, -161.559, -79.59, -75.718, -35.825, -53.258, 36.342, 30.01, 0.28934, 0.66235, -0.38327, 0.57495,
 11:16:49.259,e8:9e:2c:53:09:e3, 2024-07-06 21:50:57:005, 0.967, -0.028, -0.194, 0.977, 1.038, 0.427, -161.713, -79.607, -75.954, -35.825, -53.258, 36.342, 30.01, 0.28934, 0.66235, -0.38327, 0.57495,
 11:16:49.350,e8:9e:2c:53:09:e3, 2024-07-06 21:50:57:105, 0.967, -0.029, -0.194, 1.709, 0.916, 0.427, -161.774, -79.612, -76.245, -35.917, -53.367, 36.392, 30.01, 0.28934, 0.66235, -0.38327, 0.57495,
 11:16:49.471,e8:9e:2c:53:09:e3, 2024-07-06 21:50:57:205, 0.966, -0.029, -0.196, 1.343, 1.038, 0.549, -161.785, -79.618, -76.569, -35.917, -53.367, 36.392, 30.01, 0.29605, 0.65823, -0.39017, 0.57162,
 11:16:49.545,e8:9e:2c:53:09:e3, 2024-07-06 21:50:57:305, 0.967, -0.028, -0.196, 1.404, 0.916, 0.61, -161.779, -79.623, -76.937, -35.917, -53.367, 36.392, 30.01, 0.29605, 0.65823, -0.39017, 0.57162,
 11:16:49.664,e8:9e:2c:53:09:e3, 2024-07-06 21:50:57:405, 0.967, -0.029, -0.195, 1.221, 0.916, 0.793, -161.741, -79.623, -77.366, -35.933, -53.475, 36.442, 30.01, 0.30112, 0.65454, -0.39642, 0.56891,
 11:16:49.755,e8:9e:2c:53:09:e3, 2024-07-06 21:50:57:505, 0.967, -0.032, -0.196, 1.16, 0.793, 0.854, -161.592, -79.596, -77.871, -35.933, -53.475, 36.442, 30.01, 0.30112, 0.65454, -0.39642, 0.56891,
 11:16:49.875,e8:9e:2c:53:09:e3, 2024-07-06 21:50:57:605, 0.967, -0.031, -0.195, 1.282, 0.916, 0.671, -161.532, -79.59, -78.333, -35.933, -53.475, 36.442, 30.01, 0.30112, 0.65454, -0.39642, 0.56891,
 11:16:49.950,e8:9e:2c:53:09:e3, 2024-07-06 21:50:57:705, 0.967, -0.033, -0.194, 1.282, 0.854, 0.793, -161.483, -79.585, -78.766, -35.858, -53.333, 36.275, 30.01, 0.30112, 0.65454, -0.39642, 0.56891,
 11:16:50.070,e8:9e:2c:53:09:e3, 2024-07-06 21:50:57:805, 0.967, -0.032, -0.195, 1.038, 1.038, 0.61, -161.439, -79.579, -79.178, -35.858, -53.333, 36.275, 30.01, 0.30673, 0.6503, -0.40341, 0.56583,
 11:16:50.159,e8:9e:2c:53:09:e3, 2024-07-06 21:50:57:905, 0.967, -0.03, -0.194, 1.404, 1.038, 0.549, -161.428, -79.596, -79.563, -35.858, -53.333, 36.275, 30.01, 0.30673, 0.6503, -0.40341, 0.56583,
 11:16:50.280,e8:9e:2c:53:09:e3, 2024-07-06 21:50:58:005, 0.967, -0.029, -0.195, 1.221, 0.977, 0.427, -161.444, -79.607, -79.909, -35.825, -53.325, 36.117, 30.01, 0.31238, 0.64633, -0.40948, 0.56296,
 11:16:50.355,e8:9e:2c:53:09:e3, 2024-07-06 21:50:58:105, 0.967, -0.029, -0.193, 1.404, 0.854, 0.61, -161.483, -79.612, -80.233, -35.825, -53.325, 36.117, 30.01, 0.31238, 0.64633, -0.40948, 0.56296,
 11:16:50.475,e8:9e:2c:53:09:e3, 2024-07-06 21:50:58:205, 0.966, -0.031, -0.195, 1.587, 0.671, 0.671, -161.433, -79.596, -80.64, -35.825, -53.325, 36.117, 30.01, 0.31238, 0.64633, -0.40948, 0.56296,
 11:16:50.550,e8:9e:2c:53:09:e3, 2024-07-06 21:50:58:305, 0.967, -0.031, -0.195, 1.404, 0.671, 0.732, -161.417, -79.574, -81.024, -35.900, -53.317, 36.325, 30.01, 0.31238, 0.64633, -0.40948, 0.56296,
 11:16:50.687,e8:9e:2c:53:09:e3, 2024-07-06 21:50:58:405, 0.966, -0.03, -0.196, 1.282, 0.549, 0.793, -161.384, -79.547, -81.442, -35.900, -53.317, 36.325, 30.01, 0.31757, 0.64233, -0.41623, 0.5596,
 11:16:50.759,e8:9e:2c:53:09:e3, 2024-07-06 21:50:58:505, 0.966, -0.033, -0.196, 1.282, 0.732, 0.671, -161.356, -79.519, -81.859, -35.900, -53.317, 36.325, 30.01, 0.31757, 0.64233, -0.41623, 0.5596,
 11:16:50.879,e8:9e:2c:53:09:e3, 2024-07-06 21:50:58:605, 0.967, -0.033, -0.196, 1.221, 0.793, 0.61, -161.389, -79.503, -82.2, -35.883, -53.258, 36.575, 30.01, 0.32248, 0.63873, -0.42224, 0.55646,
 11:16:50.955,e8:9e:2c:53:09:e3, 2024-07-06 21:50:58:705, 0.966, -0.034, -0.197, 0.488, 0.916, 0.305, -161.505, -79.508, -82.496, -35.883, -53.258, 36.575, 30.01, 0.32248, 0.63873, -0.42224, 0.55646,
 11:16:51.105,e8:9e:2c:53:09:e3, 2024-07-06 21:50:58:805, 0.967, -0.031, -0.195, 0.671, 1.16, 0.183, -161.746, -79.525, -82.667, -35.883, -53.258, 36.575, 30.01, 0.32248, 0.63873, -0.42224, 0.55646,
 11:16:51.165,e8:9e:2c:53:09:e3, 2024-07-06 21:50:58:905, 0.967, -0.028, -0.195, 1.404, 0.977, 0.427, -161.906, -79.547, -82.886, -35.892, -53.375, 36.292, 30.01, 0.32248, 0.63873, -0.42224, 0.55646,
 11:16:51.285,e8:9e:2c:53:09:e3, 2024-07-06 21:50:59:005, 0.966, -0.03, -0.195, 1.831, 0.732, 0.488, -161.927, -79.541, -83.199, -35.892, -53.375, 36.292, 30.01, 0.32916, 0.63431, -0.42874, 0.55261,
 11:16:51.361,e8:9e:2c:53:09:e3, 2024-07-06 21:50:59:105, 0.966, -0.03, -0.195, 1.892, 0.61, 0.916, -161.856, -79.519, -83.589, -35.892, -53.375, 36.292, 30.01, 0.32916, 0.63431, -0.42874, 0.55261,
 11:16:51.480,e8:9e:2c:53:09:e3, 2024-07-06 21:50:59:205, 0.966, -0.032, -0.198, 1.831, 0.427, 1.16, -161.62, -79.459, -84.161, -35.842, -53.175, 36.708, 30.01, 0.33252, 0.63086, -0.43469, 0.54987,
 11:16:51.569,e8:9e:2c:53:09:e3, 2024-07-06 21:50:59:305, 0.966, -0.033, -0.198, 2.136, 0.488, 1.099, -161.362, -79.404, -84.743, -35.842, -53.175, 36.708, 30.01, 0.33252, 0.63086, -0.43469, 0.54987,
 11:16:51.689,e8:9e:2c:53:09:e3, 2024-07-06 21:50:59:405, 0.966, -0.034, -0.198, 1.099, 0.61, 1.343, -161.065, -79.338, -85.358, -35.842, -53.175, 36.708, 30.01, 0.33252, 0.63086, -0.43469, 0.54987,
 11:16:51.765,e8:9e:2c:53:09:e3, 2024-07-06 21:50:59:505, 0.966, -0.035, -0.201, 1.038, 0.732, 1.099, -160.801, -79.283, -86.023, -35.767, -53.042, 36.833, 30.01, 0.33252, 0.63086, -0.43469, 0.54987,
 11:16:51.885,e8:9e:2c:53:09:e3, 2024-07-06 21:50:59:605, 0.965, -0.036, -0.201, 1.465, 0.916, 0.916, -160.62, -79.261, -86.6, -35.767, -53.042, 36.833, 30.01, 0.3367, 0.62625, -0.44229, 0.54654,
 11:16:51.960,e8:9e:2c:53:09:e3, 2024-07-06 21:50:59:705, 0.966, -0.036, -0.199, 2.075, 1.099, 0.366, -160.527, -79.266, -87.017, -35.767, -53.042, 36.833, 29.85, 0.3367, 0.62625, -0.44229, 0.54654,
 11:16:52.080,e8:9e:2c:53:09:e3, 2024-07-06 21:50:59:805, 0.966, -0.036, -0.199, 2.441, 0.916, 0.244, -160.56, -79.288, -87.242, -35.767, -53.042, 36.833, 29.85, 0.3367, 0.62625, -0.44229, 0.54654,
 11:16:52.170,e8:9e:2c:53:09:e3, 2024-07-06 21:50:59:905, 0.967, -0.036, -0.199, 1.831, 1.038, 0.427, -160.604, -79.299, -87.479, -35.817, -52.817, 36.825, 29.85, 0.3367, 0.62625, -0.44229, 0.54654,
 11:16:52.291,e8:9e:2c:53:09:e3, 2024-07-06 21:51:00:005, 0.965, -0.037, -0.199, 2.136, 1.038, 0.366, -160.582, -79.316, -87.797, -35.817, -52.817, 36.825, 29.85, 0.34247, 0.62149, -0.44846, 0.54333,
 11:16:52.365,e8:9e:2c:53:09:e3, 2024-07-06 21:51:00:105, 0.965, -0.033, -0.199, 1.648, 0.793, 0.427, -160.659, -79.321, -87.995, -35.817, -52.817, 36.825, 29.85, 0.34247, 0.62149, -0.44846, 0.54333,
 11:16:52.484,e8:9e:2c:53:09:e3, 2024-07-06 21:51:00:205, 0.967, -0.035, -0.199, 1.16, 0.793, 0.61, -160.686, -79.31, -88.336, -35.825, -52.700, 36.625, 29.85, 0.34717, 0.61774, -0.45374, 0.54022,
 11:16:52.574,e8:9e:2c:53:09:e3, 2024-07-06 21:51:00:305, 0.966, -0.038, -0.201, 0.244, 0.977, 0.61, -160.714, -79.305, -88.731, -35.825, -52.700, 36.625, 29.85, 0.34717, 0.61774, -0.45374, 0.54022,
 11:16:52.696,e8:9e:2c:53:09:e3, 2024-07-06 21:51:00:405, 0.966, -0.034, -0.198, 0.61, 1.038, 0.366, -160.884, -79.321, -89.055, -35.825, -52.700, 36.625, 29.85, 0.34717, 0.61774, -0.45374, 0.54022,
 11:16:52.771,e8:9e:2c:53:09:e3, 2024-07-06 21:51:00:505, 0.966, -0.033, -0.199, 1.465, 0.854, 0.366, -161.027, -79.338, -89.313, -35.858, -52.883, 36.692, 29.85, 0.34717, 0.61774, -0.45374, 0.54022,
 11:16:52.889,e8:9e:2c:53:09:e3, 2024-07-06 21:51:00:605, 0.966, -0.033, -0.198, 0.427, 0.916, 0.305, -161.175, -79.338, -89.539, -35.858, -52.883, 36.692, 29.85, 0.35382, 0.61282, -0.46036, 0.53592,
 11:16:52.979,e8:9e:2c:53:09:e3, 2024-07-06 21:51:00:705, 0.965, -0.034, -0.2, 0.793, 0.977, 0.305, -161.318, -79.349, -89.813, -35.858, -52.883, 36.692, 29.85, 0.35382, 0.61282, -0.46036, 0.53592,
 11:16:53.100,e8:9e:2c:53:09:e3, 2024-07-06 21:51:00:805, 0.967, -0.032, -0.199, 0.977, 0.916, 0.244, -161.51, -79.365, -90.005, -35.808, -53.167, 36.492, 29.85, 0.35962, 0.60858, -0.46594, 0.53204,
 11:16:53.175,e8:9e:2c:53:09:e3, 2024-07-06 21:51:00:905, 0.965, -0.031, -0.2, 0.366, 0.977, 0.183, -161.719, -79.371, -90.198, -35.808, -53.167, 36.492, 29.85, 0.35962, 0.60858, -0.46594, 0.53204,
 11:16:53.296,e8:9e:2c:53:09:e3, 2024-07-06 21:51:01:005, 0.965, -0.032, -0.197, -0.305, 1.221, 0.305, -161.988, -79.398, -90.428, -35.808, -53.167, 36.492, 29.85, 0.35962, 0.60858, -0.46594, 0.53204,
 11:16:53.385,e8:9e:2c:53:09:e3, 2024-07-06 21:51:01:105, 0.966, -0.028, -0.197, 1.282, 0.916, 0.366, -162.175, -79.415, -90.643, -35.783, -53.408, 36.608, 29.85, 0.35962, 0.60858, -0.46594, 0.53204,
 11:16:53.490,e8:9e:2c:53:09:e3, 2024-07-06 21:51:01:205, 0.966, -0.028, -0.2, 1.648, 0.732, 0.732, -162.186, -79.415, -91, -35.783, -53.408, 36.608, 29.85, 0.36661, 0.60327, -0.47266, 0.52737,
 11:16:53.580,e8:9e:2c:53:09:e3, 2024-07-06 21:51:01:305, 0.966, -0.029, -0.2, 1.099, 0.916, 0.671, -162.114, -79.398, -91.428, -35.783, -53.408, 36.608, 29.85, 0.36661, 0.60327, -0.47266, 0.52737,
 11:16:53.700,e8:9e:2c:53:09:e3, 2024-07-06 21:51:01:405, 0.967, -0.03, -0.2, 1.16, 0.977, 0.549, -162.125, -79.404, -91.807, -35.658, -53.417, 36.367, 29.85, 0.37152, 0.59879, -0.47833, 0.52393,
 11:16:53.775,e8:9e:2c:53:09:e3, 2024-07-06 21:51:01:505, 0.966, -0.03, -0.198, 1.282, 1.099, 0.488, -162.153, -79.415, -92.17, -35.658, -53.417, 36.367, 29.85, 0.37152, 0.59879, -0.47833, 0.52393,
 11:16:53.894,e8:9e:2c:53:09:e3, 2024-07-06 21:51:01:605, 0.966, -0.031, -0.198, 1.282, 1.099, 0.549, -162.186, -79.431, -92.488, -35.658, -53.417, 36.367, 29.85, 0.37152, 0.59879, -0.47833, 0.52393,
 11:16:54.000,e8:9e:2c:53:09:e3, 2024-07-06 21:51:01:705, 0.966, -0.028, -0.198, 1.892, 0.916, 0.793, -162.109, -79.437, -92.906, -35.650, -53.342, 36.500, 29.85, 0.37152, 0.59879, -0.47833, 0.52393,
 11:16:54.105,e8:9e:2c:53:09:e3, 2024-07-06 21:51:01:805, 0.966, -0.03, -0.198, 2.075, 0.916, 0.854, -161.922, -79.431, -93.389, -35.650, -53.342, 36.500, 29.85, 0.37619, 0.59418, -0.4838, 0.52081,
 11:16:54.181,e8:9e:2c:53:09:e3, 2024-07-06 21:51:01:905, 0.966, -0.033, -0.196, 1.282, 0.916, 0.854, -161.752, -79.426, -93.911, -35.650, -53.342, 36.500, 29.85, 0.37619, 0.59418, -0.4838, 0.52081,
 11:16:54.299,e8:9e:2c:53:09:e3, 2024-07-06 21:51:02:005, 0.966, -0.033, -0.197, 0.793, 0.916, 0.793, -161.664, -79.415, -94.406, -35.733, -53.167, 36.592, 29.85, 0.38095, 0.58926, -0.48965, 0.51746,
 11:16:54.389,e8:9e:2c:53:09:e3, 2024-07-06 21:51:02:105, 0.966, -0.032, -0.196, 1.16, 1.099, 0.793, -161.614, -79.426, -94.867, -35.733, -53.167, 36.592, 29.85, 0.38095, 0.58926, -0.48965, 0.51746,
 11:16:54.510,e8:9e:2c:53:09:e3, 2024-07-06 21:51:02:205, 0.966, -0.032, -0.198, 1.648, 0.916, 0.854, -161.488, -79.426, -95.35, -35.733, -53.167, 36.592, 29.85, 0.38095, 0.58926, -0.48965, 0.51746,
 11:16:54.585,e8:9e:2c:53:09:e3, 2024-07-06 21:51:02:305, 0.967, -0.031, -0.198, 1.404, 1.16, 0.671, -161.4, -79.442, -95.823, -35.700, -53.317, 36.433, 29.85, 0.38095, 0.58926, -0.48965, 0.51746,
 11:16:54.705,e8:9e:2c:53:09:e3, 2024-07-06 21:51:02:405, 0.966, -0.032, -0.197, 2.014, 1.038, 0.793, -161.268, -79.453, -96.29, -35.700, -53.317, 36.433, 29.85, 0.38599, 0.58398, -0.49554, 0.5141,
 11:16:54.795,e8:9e:2c:53:09:e3, 2024-07-06 21:51:02:505, 0.966, -0.033, -0.196, 1.953, 0.793, 1.038, -161.049, -79.442, -96.817, -35.700, -53.317, 36.433, 29.85, 0.38599, 0.58398, -0.49554, 0.5141,
 11:16:54.929,e8:9e:2c:53:09:e3, 2024-07-06 21:51:02:605, 0.967, -0.035, -0.197, 1.648, 0.977, 0.732, -160.845, -79.431, -97.361, -35.858, -53.042, 36.508, 29.85, 0.38599, 0.58398, -0.49554, 0.5141,
 11:16:54.990,e8:9e:2c:53:09:e3, 2024-07-06 21:51:02:705, 0.967, -0.033, -0.197, 1.16, 1.099, 0.671, -160.796, -79.448, -97.773, -35.858, -53.042, 36.508, 29.85, 0.39041, 0.57892, -0.50125, 0.51096,
 11:16:55.124,e8:9e:2c:53:09:e3, 2024-07-06 21:51:02:805, 0.966, -0.033, -0.195, 1.038, 1.038, 0.671, -160.774, -79.459, -98.174, -35.858, -53.042, 36.508, 29.85, 0.39041, 0.57892, -0.50125, 0.51096,
 11:16:55.186,e8:9e:2c:53:09:e3, 2024-07-06 21:51:02:905, 0.967, -0.034, -0.196, 0.793, 1.16, 0.549, -160.812, -79.475, -98.542, -35.958, -53.133, 36.242, 29.85, 0.39041, 0.57892, -0.50125, 0.51096,
 11:16:55.320,e8:9e:2c:53:09:e3, 2024-07-06 21:51:03:005, 0.967, -0.033, -0.196, 1.099, 1.16, 0.427, -160.851, -79.503, -98.888, -35.958, -53.133, 36.242, 29.85, 0.39584, 0.57376, -0.50674, 0.50714,
 11:16:55.395,e8:9e:2c:53:09:e3, 2024-07-06 21:51:03:105, 0.967, -0.034, -0.195, 1.099, 1.16, 0.366, -160.922, -79.53, -99.196, -35.958, -53.133, 36.242, 29.85, 0.39584, 0.57376, -0.50674, 0.50714,
 11:16:55.515,e8:9e:2c:53:09:e3, 2024-07-06 21:51:03:205, 0.967, -0.033, -0.196, 0.854, 1.221, 0.427, -161.021, -79.557, -99.481, -35.783, -53.192, 36.367, 29.85, 0.40128, 0.56891, -0.51163, 0.50342,
 11:16:55.590,e8:9e:2c:53:09:e3, 2024-07-06 21:51:03:305, 0.966, -0.032, -0.194, 0.854, 1.221, 0.305, -161.12, -79.596, -99.772, -35.783, -53.192, 36.367, 29.85, 0.40128, 0.56891, -0.51163, 0.50342,
 11:16:55.711,e8:9e:2c:53:09:e3, 2024-07-06 21:51:03:405, 0.968, -0.03, -0.194, 0.854, 1.221, 0.305, -161.274, -79.629, -100.003, -35.783, -53.192, 36.367, 29.85, 0.40128, 0.56891, -0.51163, 0.50342,
 11:16:55.800,e8:9e:2c:53:09:e3, 2024-07-06 21:51:03:505, 0.968, -0.031, -0.194, 1.099, 1.099, 0.427, -161.345, -79.651, -100.3, -35.892, -53.275, 36.250, 29.85, 0.40128, 0.56891, -0.51163, 0.50342,
 11:16:55.919,e8:9e:2c:53:09:e3, 2024-07-06 21:51:03:605, 0.967, -0.03, -0.193, 1.404, 0.977, 0.366, -161.417, -79.667, -100.591, -35.892, -53.275, 36.250, 29.85, 0.4071, 0.56369, -0.51688, 0.49924,
 11:16:55.995,e8:9e:2c:53:09:e3, 2024-07-06 21:51:03:705, 0.967, -0.03, -0.194, 1.526, 0.793, 0.732, -161.428, -79.673, -100.942, -35.892, -53.275, 36.250, 29.85, 0.4071, 0.56369, -0.51688, 0.49924,
 11:16:56.115,e8:9e:2c:53:09:e3, 2024-07-06 21:51:03:805, 0.967, -0.031, -0.194, 1.404, 0.854, 0.671, -161.373, -79.662, -101.36, -35.825, -53.308, 36.308, 29.85, 0.4071, 0.56369, -0.51688, 0.49924,
 11:16:56.205,e8:9e:2c:53:09:e3, 2024-07-06 21:51:03:905, 0.967, -0.031, -0.194, 1.404, 0.732, 0.854, -161.301, -79.645, -101.794, -35.825, -53.308, 36.308, 29.85, 0.41156, 0.55881, -0.52225, 0.49545,
 11:16:56.324,e8:9e:2c:53:09:e3, 2024-07-06 21:51:04:005, 0.968, -0.032, -0.195, 1.038, 0.854, 0.732, -161.257, -79.629, -102.217, -35.825, -53.308, 36.308, 29.85, 0.41156, 0.55881, -0.52225, 0.49545,
 11:16:56.399,e8:9e:2c:53:09:e3, 2024-07-06 21:51:04:105, 0.968, -0.032, -0.193, 1.343, 0.732, 0.671, -161.241, -79.618, -102.618, -35.992, -53.192, 36.525, 29.85, 0.41156, 0.55881, -0.52225, 0.49545,
 11:16:56.520,e8:9e:2c:53:09:e3, 2024-07-06 21:51:04:205, 0.967, -0.033, -0.194, 1.343, 0.732, 0.61, -161.246, -79.601, -102.98, -35.992, -53.192, 36.525, 29.85, 0.41614, 0.55365, -0.52802, 0.49127,
 11:16:56.595,e8:9e:2c:53:09:e3, 2024-07-06 21:51:04:305, 0.967, -0.033, -0.194, 1.465, 0.671, 0.549, -161.29, -79.59, -103.31, -35.992, -53.192, 36.525, 29.85, 0.41614, 0.55365, -0.52802, 0.49127,
 11:16:56.714,e8:9e:2c:53:09:e3, 2024-07-06 21:51:04:405, 0.966, -0.033, -0.195, 1.282, 0.793, 0.427, -161.312, -79.574, -103.64, -35.875, -53.058, 36.492, 29.85, 0.42041, 0.54913, -0.53299, 0.48734,
 11:16:56.805,e8:9e:2c:53:09:e3, 2024-07-06 21:51:04:505, 0.967, -0.031, -0.194, 1.038, 0.854, 0.549, -161.406, -79.574, -103.931, -35.875, -53.058, 36.492, 29.85, 0.42041, 0.54913, -0.53299, 0.48734,
 11:16:56.925,e8:9e:2c:53:09:e3, 2024-07-06 21:51:04:605, 0.966, -0.031, -0.196, 1.282, 0.671, 0.61, -161.472, -79.552, -104.227, -35.875, -53.058, 36.492, 29.85, 0.42041, 0.54913, -0.53299, 0.48734,
 11:16:57.015,e8:9e:2c:53:09:e3, 2024-07-06 21:51:04:705, 0.968, -0.031, -0.196, 1.343, 0.732, 0.732, -161.526, -79.536, -104.557, -35.950, -53.267, 36.392, 29.85, 0.42041, 0.54913, -0.53299, 0.48734,
 11:16:57.120,e8:9e:2c:53:09:e3, 2024-07-06 21:51:04:805, 0.967, -0.033, -0.197, 1.221, 0.671, 0.671, -161.494, -79.514, -104.969, -35.950, -53.267, 36.392, 29.85, 0.42517, 0.54382, -0.53891, 0.4826,
 11:16:57.210,e8:9e:2c:53:09:e3, 2024-07-06 21:51:04:905, 0.966, -0.032, -0.196, 1.343, 0.732, 0.61, -161.526, -79.492, -105.309, -35.950, -53.267, 36.392, 29.85, 0.42517, 0.54382, -0.53891, 0.4826,
 11:16:57.330,e8:9e:2c:53:09:e3, 2024-07-06 21:51:05:005, 0.966, -0.031, -0.197, 1.587, 0.61, 0.793, -161.505, -79.464, -105.688, -35.800, -53.058, 36.517, 29.85, 0.42905, 0.53906, -0.54425, 0.47855,
 11:16:57.405,e8:9e:2c:53:09:e3, 2024-07-06 21:51:05:105, 0.966, -0.032, -0.198, 1.892, 0.549, 1.099, -161.373, -79.426, -106.172, -35.800, -53.058, 36.517, 29.85, 0.42905, 0.53906, -0.54425, 0.47855,
 11:16:57.525,e8:9e:2c:53:09:e3, 2024-07-06 21:51:05:205, 0.965, -0.034, -0.199, 1.221, 0.916, 0.61, -161.224, -79.398, -106.694, -35.800, -53.058, 36.517, 29.85, 0.42905, 0.53906, -0.54425, 0.47855,
 11:16:57.602,e8:9e:2c:53:09:e3, 2024-07-06 21:51:05:305, 0.967, -0.032, -0.196, 1.221, 0.977, 0.488, -161.257, -79.409, -107.034, -35.767, -53.217, 36.492, 29.85, 0.42905, 0.53906, -0.54425, 0.47855,
 11:16:57.736,e8:9e:2c:53:09:e3, 2024-07-06 21:51:05:405, 0.968, -0.034, -0.198, 1.465, 0.977, 0.61, -161.241, -79.415, -107.408, -35.767, -53.217, 36.492, 29.85, 0.43375, 0.53326, -0.55002, 0.47421,
 11:16:57.811,e8:9e:2c:53:09:e3, 2024-07-06 21:51:05:505, 0.967, -0.034, -0.198, 1.648, 0.977, 0.61, -161.175, -79.426, -107.836, -35.767, -53.217, 36.492, 29.85, 0.43375, 0.53326, -0.55002, 0.47421,
 11:16:57.930,e8:9e:2c:53:09:e3, 2024-07-06 21:51:05:605, 0.966, -0.032, -0.196, 1.587, 0.916, 0.854, -161.098, -79.437, -108.259, -35.817, -53.042, 36.292, 29.85, 0.43774, 0.52792, -0.55499, 0.47067,
 11:16:58.005,e8:9e:2c:53:09:e3, 2024-07-06 21:51:05:705, 0.966, -0.034, -0.197, 1.343, 0.549, 1.404, -160.785, -79.393, -108.946, -35.817, -53.042, 36.292, 29.85, 0.43774, 0.52792, -0.55499, 0.47067,
 11:16:58.125,e8:9e:2c:53:09:e3, 2024-07-06 21:51:05:805, 0.966, -0.035, -0.198, 1.099, 0.793, 1.099, -160.538, -79.354, -109.594, -35.817, -53.042, 36.292, 29.85, 0.43774, 0.52792, -0.55499, 0.47067,
 11:16:58.216,e8:9e:2c:53:09:e3, 2024-07-06 21:51:05:905, 0.966, -0.039, -0.198, 1.831, 0.732, 1.038, -160.312, -79.327, -110.165, -35.967, -52.842, 36.467, 29.85, 0.43774, 0.52792, -0.55499, 0.47067,
 11:16:58.335,e8:9e:2c:53:09:e3, 2024-07-06 21:51:06:005, 0.966, -0.037, -0.198, 1.709, 0.916, 0.854, -160.131, -79.31, -110.682, -35.967, -52.842, 36.467, 29.85, 0.44138, 0.52197, -0.561, 0.4668,
 11:16:58.409,e8:9e:2c:53:09:e3, 2024-07-06 21:51:06:105, 0.966, -0.037, -0.198, 1.709, 1.038, 0.671, -160.038, -79.305, -111.11, -35.967, -52.842, 36.467, 29.85, 0.44138, 0.52197, -0.561, 0.4668,
 11:16:58.530,e8:9e:2c:53:09:e3, 2024-07-06 21:51:06:205, 0.966, -0.038, -0.198, 1.953, 1.038, 0.549, -159.955, -79.316, -111.506, -36.042, -52.775, 36.575, 29.85, 0.44492, 0.51743, -0.565, 0.46368,
 11:16:58.635,e8:9e:2c:53:09:e3, 2024-07-06 21:51:06:305, 0.967, -0.038, -0.197, 2.563, 0.916, 0.305, -159.939, -79.321, -111.769, -36.042, -52.775, 36.575, 29.85, 0.44492, 0.51743, -0.565, 0.46368,
 11:16:58.740,e8:9e:2c:53:09:e3, 2024-07-06 21:51:06:405, 0.967, -0.04, -0.197, 2.38, 1.221, 0.061, -160.016, -79.354, -111.918, -36.042, -52.775, 36.575, 29.85, 0.44492, 0.51743, -0.565, 0.46368,
 11:16:58.815,e8:9e:2c:53:09:e3, 2024-07-06 21:51:06:505, 0.966, -0.037, -0.196, 2.563, 1.221, -0.122, -160.181, -79.404, -112, -35.858, -52.650, 36.975, 29.85, 0.44492, 0.51743, -0.565, 0.46368,
 11:16:58.934,e8:9e:2c:53:09:e3, 2024-07-06 21:51:06:605, 0.966, -0.037, -0.195, 1.465, 1.16, 0.427, -160.296, -79.442, -112.214, -35.858, -52.650, 36.975, 29.85, 0.44901, 0.51358, -0.56781, 0.46054,
 11:16:59.025,e8:9e:2c:53:09:e3, 2024-07-06 21:51:06:705, 0.967, -0.033, -0.195, 1.404, 1.404, 0.122, -160.384, -79.481, -112.451, -35.858, -52.650, 36.975, 29.85, 0.44901, 0.51358, -0.56781, 0.46054,
 11:16:59.130,e8:9e:2c:53:09:e3, 2024-07-06 21:51:06:805, 0.967, -0.034, -0.194, 1.953, 1.221, 0.061, -160.494, -79.53, -112.665, -35.900, -52.675, 36.750, 29.85, 0.45361, 0.50894, -0.57123, 0.45691,
 11:16:59.220,e8:9e:2c:53:09:e3, 2024-07-06 21:51:06:905, 0.967, -0.035, -0.195, 2.258, 0.977, 0.244, -160.582, -79.563, -112.852, -35.900, -52.675, 36.750, 29.85, 0.45361, 0.50894, -0.57123, 0.45691,
 11:16:59.355,e8:9e:2c:53:09:e3, 2024-07-06 21:51:07:005, 0.967, -0.033, -0.195, 1.648, 0.793, 0.61, -160.609, -79.568, -113.099, -35.900, -52.675, 36.750, 29.85, 0.45361, 0.50894, -0.57123, 0.45691,
 11:16:59.415,e8:9e:2c:53:09:e3, 2024-07-06 21:51:07:105, 0.967, -0.035, -0.197, 1.648, 0.549, 0.61, -160.582, -79.541, -113.456, -35.875, -52.742, 37.042, 29.85, 0.45361, 0.50894, -0.57123, 0.45691,
 11:16:59.551,e8:9e:2c:53:09:e3, 2024-07-06 21:51:07:205, 0.966, -0.034, -0.198, 0.916, 0.549, 0.793, -160.615, -79.503, -113.774, -35.875, -52.742, 37.042, 29.85, 0.45721, 0.50421, -0.57584, 0.45279,
 11:16:59.626,e8:9e:2c:53:09:e3, 2024-07-06 21:51:07:305, 0.966, -0.036, -0.197, 1.221, 0.61, 0.854, -160.571, -79.464, -114.197, -35.875, -52.742, 37.042, 29.85, 0.45721, 0.50421, -0.57584, 0.45279,
 11:16:59.745,e8:9e:2c:53:09:e3, 2024-07-06 21:51:07:405, 0.967, -0.037, -0.198, 1.221, 1.099, 0.549, -160.483, -79.442, -114.615, -35.867, -52.500, 37.208, 29.85, 0.46057, 0.49945, -0.58026, 0.44897,
 11:16:59.820,e8:9e:2c:53:09:e3, 2024-07-06 21:51:07:505, 0.967, -0.034, -0.198, 1.343, 1.038, 0.305, -160.554, -79.459, -114.868, -35.867, -52.500, 37.208, 29.85, 0.46057, 0.49945, -0.58026, 0.44897,
 11:16:59.945,e8:9e:2c:53:09:e3, 2024-07-06 21:51:07:605, 0.967, -0.035, -0.196, 1.282, 1.038, 0.244, -160.697, -79.481, -115.098, -35.867, -52.500, 37.208, 29.85, 0.46057, 0.49945, -0.58026, 0.44897,
 11:17:00.030,e8:9e:2c:53:09:e3, 2024-07-06 21:51:07:705, 0.966, -0.035, -0.196, 1.587, 1.221, -0.122, -160.95, -79.525, -115.203, -35.775, -52.617, 37.175, 29.85, 0.46057, 0.49945, -0.58026, 0.44897,
 11:17:00.165,e8:9e:2c:53:09:e3, 2024-07-06 21:51:07:805, 0.967, -0.033, -0.193, 1.343, 1.221, 0.305, -161.109, -79.574, -115.422, -35.775, -52.617, 37.175, 29.85, 0.46619, 0.49374, -0.58459, 0.44385,
 11:17:00.225,e8:9e:2c:53:09:e3, 2024-07-06 21:51:07:905, 0.967, -0.033, -0.194, 1.221, 1.221, 0.427, -161.153, -79.607, -115.757, -35.775, -52.617, 37.175, 29.85, 0.46619, 0.49374, -0.58459, 0.44385,
 11:17:00.345,e8:9e:2c:53:09:e3, 2024-07-06 21:51:08:005, 0.966, -0.033, -0.194, 2.014, 1.282, -0.122, -161.268, -79.645, -115.983, -35.833, -52.675, 37.050, 29.85, 0.47064, 0.48907, -0.58777, 0.44009,
 11:17:00.449,e8:9e:2c:53:09:e3, 2024-07-06 21:51:08:105, 0.969, -0.025, -0.194, 2.563, 1.282, 0.244, -161.417, -79.706, -116.076, -35.833, -52.675, 37.050, 29.85, 0.47064, 0.48907, -0.58777, 0.44009,
 11:17:00.571,e8:9e:2c:53:09:e3, 2024-07-06 21:51:08:205, 0.967, -0.034, -0.194, 1.343, 1.648, 0.488, -161.268, -79.755, -116.603, -35.833, -52.675, 37.050, 29.85, 0.47064, 0.48907, -0.58777, 0.44009,
 11:17:00.630,e8:9e:2c:53:09:e3, 2024-07-06 21:51:08:305, 0.967, -0.032, -0.189, 1.831, 2.136, -1.038, -161.554, -79.882, -116.614, -35.917, -52.617, 37.050, 29.85, 0.47064, 0.48907, -0.58777, 0.44009,
 11:17:00.750,e8:9e:2c:53:09:e3, 2024-07-06 21:51:08:405, 0.968, -0.027, -0.189, 2.808, 2.136, -1.465, -162.257, -80.035, -116.082, -35.917, -52.617, 37.050, 29.85, 0.47635, 0.48465, -0.58951, 0.43655,
 11:17:00.825,e8:9e:2c:53:09:e3, 2024-07-06 21:51:08:505, 0.969, -0.022, -0.188, 2.136, 1.953, -1.099, -162.977, -80.2, -115.51, -35.917, -52.617, 37.050, 29.85, 0.47635, 0.48465, -0.58951, 0.43655,
 11:17:00.944,e8:9e:2c:53:09:e3, 2024-07-06 21:51:08:605, 0.968, -0.021, -0.184, 1.709, 1.587, -1.038, -163.669, -80.321, -115.076, -36.075, -52.775, 36.992, 29.85, 0.48172, 0.48276, -0.58926, 0.43304,
 11:17:01.036,e8:9e:2c:53:09:e3, 2024-07-06 21:51:08:705, 0.971, -0.018, -0.181, 2.441, 0.244, -1.77, -164.63, -80.398, -114.351, -36.075, -52.775, 36.992, 29.85, 0.48172, 0.48276, -0.58926, 0.43304,
 11:17:01.155,e8:9e:2c:53:09:e3, 2024-07-06 21:51:08:805, 0.968, -0.018, -0.178, 0.549, -0.61, -0.549, -165.806, -80.338, -113.461, -36.075, -52.775, 36.992, 29.85, 0.48172, 0.48276, -0.58926, 0.43304,
 11:17:01.230,e8:9e:2c:53:09:e3, 2024-07-06 21:51:08:905, 0.965, -0.018, -0.188, 1.16, -1.404, -1.221, -166.844, -80.167, -112.753, -35.208, -53.075, 37.117, 29.85, 0.48172, 0.48276, -0.58926, 0.43304,
 11:17:01.349,e8:9e:2c:53:09:e3, 2024-07-06 21:51:09:005, 0.963, -0.001, -0.199, 0.793, -2.319, -1.038, -168.272, -79.958, -111.544, -35.208, -53.075, 37.117, 29.85, 0.48444, 0.48297, -0.59329, 0.42422,
 11:17:01.441,e8:9e:2c:53:09:e3, 2024-07-06 21:51:09:105, 0.964, -0.004, -0.197, -1.343, -4.211, 1.16, -169.118, -79.596, -111.302, -35.208, -53.075, 37.117, 29.85, 0.48444, 0.48297, -0.59329, 0.42422,
 11:17:01.560,e8:9e:2c:53:09:e3, 2024-07-06 21:51:09:205, 0.959, -0.008, -0.208, 2.197, -6.958, 0.488, -169.662, -79.014, -111.275, -33.892, -53.433, 37.817, 29.85, 0.4816, 0.48151, -0.60547, 0.41171,
 11:17:01.636,e8:9e:2c:53:09:e3, 2024-07-06 21:51:09:305, 0.953, -0.009, -0.218, 1.343, -9.338, 2.258, -170.019, -78.168, -111.275, -33.892, -53.433, 37.817, 29.85, 0.4816, 0.48151, -0.60547, 0.41171,
 11:17:01.755,e8:9e:2c:53:09:e3, 2024-07-06 21:51:09:405, 0.955, -0.021, -0.255, 2.38, -9.033, 1.221, -170.101, -77.124, -111.495, -33.892, -53.433, 37.817, 29.85, 0.4816, 0.48151, -0.60547, 0.41171,
 11:17:01.845,e8:9e:2c:53:09:e3, 2024-07-06 21:51:09:505, 0.945, -0.014, -0.268, 4.7, -4.456, -5.31, -171.552, -76.531, -109.962, -30.733, -53.317, 39.983, 29.85, 0.4816, 0.48151, -0.60547, 0.41171,
 11:17:01.967,e8:9e:2c:53:09:e3, 2024-07-06 21:51:09:605, 0.944, 0.006, -0.261, 4.7, -3.784, -5.554, -173.881, -76.152, -107.474, -30.733, -53.317, 39.983, 29.85, 0.47174, 0.49118, -0.61438, 0.39825,
 11:17:02.039,e8:9e:2c:53:09:e3, 2024-07-06 21:51:09:705, 0.944, 0.006, -0.269, 3.296, -6.165, -1.953, -175.408, -75.591, -105.881, -30.733, -53.317, 39.983, 29.85, 0.47174, 0.49118, -0.61438, 0.39825,
 11:17:02.195,e8:9e:2c:53:09:e3, 2024-07-06 21:51:09:805, 0.942, 0.005, -0.299, 2.197, -3.967, -0.732, -175.974, -74.987, -105.48, -27.683, -53.400, 41.467, 29.85, 0.46793, 0.49652, -0.61981, 0.3876,
 11:17:02.235,e8:9e:2c:53:09:e3, 2024-07-06 21:51:09:905, 0.937, 0.013, -0.289, -3.357, 0.732, -0.671, -176.715, -74.8, -105.222, -27.683, -53.400, 41.467, 29.85, 0.46793, 0.49652, -0.61981, 0.3876,
 11:17:02.355,e8:9e:2c:53:09:e3, 2024-07-06 21:51:10:005, 0.938, 0.017, -0.287, -0.305, -0.122, 0.366, -177.138, -74.724, -105.37, -27.683, -53.400, 41.467, 29.85, 0.46793, 0.49652, -0.61981, 0.3876,
 11:17:02.446,e8:9e:2c:53:09:e3, 2024-07-06 21:51:10:105, 0.937, 0.012, -0.294, 0.61, 0.183, 0.427, -177.253, -74.592, -105.65, -26.867, -54.025, 41.292, 29.85, 0.46793, 0.49652, -0.61981, 0.3876,
 11:17:02.566,e8:9e:2c:53:09:e3, 2024-07-06 21:51:10:205, 0.938, 0.016, -0.292, 1.526, 0.427, 0.732, -177.308, -74.531, -105.914, -26.867, -54.025, 41.292, 29.85, 0.47186, 0.49072, -0.62631, 0.37967,
 11:17:02.640,e8:9e:2c:53:09:e3, 2024-07-06 21:51:10:305, 0.938, 0.013, -0.292, 1.587, 1.099, 1.343, -177.105, -74.487, -106.43, -26.867, -54.025, 41.292, 29.85, 0.47186, 0.49072, -0.62631, 0.37967,
 11:17:02.762,e8:9e:2c:53:09:e3, 2024-07-06 21:51:10:405, 0.939, 0.012, -0.292, 2.075, 1.404, 1.404, -176.776, -74.487, -107.012, -27.058, -53.817, 41.842, 29.85, 0.47354, 0.48538, -0.63049, 0.3775,
 11:17:02.849,e8:9e:2c:53:09:e3, 2024-07-06 21:51:10:505, 0.938, 0.009, -0.29, 2.075, 2.014, 1.648, -176.375, -74.531, -107.661, -27.058, -53.817, 41.842, 29.85, 0.47354, 0.48538, -0.63049, 0.3775,
 11:17:02.969,e8:9e:2c:53:09:e3, 2024-07-06 21:51:10:605, 0.942, 0.007, -0.286, 1.953, 2.563, 2.258, -175.803, -74.63, -108.484, -27.058, -53.817, 41.842, 29.85, 0.47354, 0.48538, -0.63049, 0.3775,
 11:17:03.046,e8:9e:2c:53:09:e3, 2024-07-06 21:51:10:705, 0.945, 0.002, -0.287, 1.16, 6.165, 1.282, -175.298, -74.938, -109.248, -28.200, -53.633, 41.383, 29.85, 0.47354, 0.48538, -0.63049, 0.3775,
 11:17:03.165,e8:9e:2c:53:09:e3, 2024-07-06 21:51:10:805, 0.947, 0.005, -0.273, 3.052, 6.409, 0.366, -175.045, -75.416, -109.616, -28.200, -53.633, 41.383, 29.85, 0.47968, 0.47705, -0.63068, 0.38007,
 11:17:03.255,e8:9e:2c:53:09:e3, 2024-07-06 21:51:10:905, 0.953, 0.034, -0.294, 4.15, 7.996, 3.174, -174.26, -75.921, -110.457, -28.200, -53.633, 41.383, 29.85, 0.47968, 0.47705, -0.63068, 0.38007,
 11:17:03.375,e8:9e:2c:53:09:e3, 2024-07-06 21:51:11:005, 0.958, -0.014, -0.248, -3.235, 11.108, 2.625, -172.798, -76.75, -112.555, -30.842, -53.133, 40.517, 29.85, 0.49307, 0.46188, -0.62814, 0.38583,
 11:17:03.449,e8:9e:2c:53:09:e3, 2024-07-06 21:51:11:105, 0.962, -0.006, -0.229, 0.122, 10.803, 0.916, -172.117, -77.69, -113.835, -30.842, -53.133, 40.517, 29.85, 0.49307, 0.46188, -0.62814, 0.38583,
 11:17:03.570,e8:9e:2c:53:09:e3, 2024-07-06 21:51:11:205, 0.968, -0.002, -0.212, 1.282, 10.498, 2.441, -171.09, -78.585, -115.269, -30.842, -53.133, 40.517, 29.85, 0.49307, 0.46188, -0.62814, 0.38583,
 11:17:03.644,e8:9e:2c:53:09:e3, 2024-07-06 21:51:11:305, 0.973, 0.004, -0.204, -3.906, 10.559, 4.15, -169.426, -79.437, -117.389, -34.425, -53.400, 37.633, 29.85, 0.49307, 0.46188, -0.62814, 0.38583,
 11:17:03.765,e8:9e:2c:53:09:e3, 2024-07-06 21:51:11:405, 0.979, -0.028, -0.189, -5.249, 12.756, 2.686, -167.036, -80.365, -120.795, -34.425, -53.400, 37.633, 29.85, 0.51611, 0.43704, -0.62369, 0.39182,
 11:17:03.854,e8:9e:2c:53:09:e3, 2024-07-06 21:51:11:505, 0.975, -0.041, -0.167, -0.244, 18.066, -9.277, -167.366, -81.771, -120.861, -34.425, -53.400, 37.633, 29.85, 0.51611, 0.43704, -0.62369, 0.39182,
 11:17:03.975,e8:9e:2c:53:09:e3, 2024-07-06 21:51:11:605, 0.991, 0.014, -0.139, -4.15, 29.236, -28.381, 177.715, -84.128, -105.568, -36.875, -55.567, 33.792, 29.85, 0.55701, 0.44138, -0.58527, 0.3902,
 11:17:04.050,e8:9e:2c:53:09:e3, 2024-07-06 21:51:11:705, 0.981, 0.097, -0.075, -5.432, 21.851, -22.644, 141.63, -85.441, -69.626, -36.875, -55.567, 33.792, 29.85, 0.55701, 0.44138, -0.58527, 0.3902,
 11:17:04.170,e8:9e:2c:53:09:e3, 2024-07-06 21:51:11:805, 1.001, 0.103, -0.041, -6.47, 19.958, -16.296, 108.375, -85.045, -37.249, -36.875, -55.567, 33.792, 29.85, 0.55701, 0.44138, -0.58527, 0.3902,
 11:17:04.260,e8:9e:2c:53:09:e3, 2024-07-06 21:51:11:905, 0.959, 0.151, -0.012, -8.057, 20.325, -13.184, 87.001, -83.837, -16.639, -37.150, -61.983, 27.067, 29.85, 0.55701, 0.44138, -0.58527, 0.3902,
 11:17:04.382,e8:9e:2c:53:09:e3, 2024-07-06 21:51:12:005, 0.967, 0.187, 0.045, -4.883, 18.25, -10.254, 72.9, -82.26, -3.356, -37.150, -61.983, 27.067, 29.85, 0.61633, 0.43198, -0.54248, 0.37299,
 11:17:04.455,e8:9e:2c:53:09:e3, 2024-07-06 21:51:12:105, 0.972, 0.158, 0.064, 1.465, 4.333, 2.869, 66.89, -81.678, 1.791, -37.150, -61.983, 27.067, 29.85, 0.61633, 0.43198, -0.54248, 0.37299,
 11:17:04.575,e8:9e:2c:53:09:e3, 2024-07-06 21:51:12:205, 0.988, 0.167, 0.056, 3.845, -1.038, 2.747, 65.852, -81.804, 2.329, -38.067, -63.717, 23.617, 29.85, 0.61633, 0.43198, -0.54248, 0.37299,
 11:17:04.665,e8:9e:2c:53:09:e3, 2024-07-06 21:51:12:305, 0.99, 0.157, 0.039, 1.038, -2.014, 0.916, 67.368, -81.974, 0.236, -38.067, -63.717, 23.617, 29.85, 0.62723, 0.41995, -0.54453, 0.36551,
 11:17:04.785,e8:9e:2c:53:09:e3, 2024-07-06 21:51:12:405, 0.983, 0.149, 0.029, 1.343, 0.549, 0.366, 68.373, -81.985, -1.318, -38.067, -63.717, 23.617, 29.85, 0.62723, 0.41995, -0.54453, 0.36551,
 11:17:04.875,e8:9e:2c:53:09:e3, 2024-07-06 21:51:12:505, 0.981, 0.166, 0.047, 0.916, 1.648, -1.16, 68.286, -81.821, -1.615, -37.875, -63.617, 24.250, 29.85, 0.62723, 0.41995, -0.54453, 0.36551,
 11:17:04.981,e8:9e:2c:53:09:e3, 2024-07-06 21:51:12:605, 0.982, 0.167, 0.052, 2.075, 2.136, 0.854, 68.033, -81.645, -1.538, -37.875, -63.617, 24.250, 29.85, 0.6319, 0.41617, -0.54745, 0.35736,
 11:17:05.055,e8:9e:2c:53:09:e3, 2024-07-06 21:51:12:705, 0.981, 0.171, 0.048, 1.282, 2.869, 0, 67.115, -81.508, -0.78, -37.875, -63.617, 24.250, 29.85, 0.6319, 0.41617, -0.54745, 0.35736,
 11:17:05.175,e8:9e:2c:53:09:e3, 2024-07-06 21:51:12:805, 0.975, 0.168, 0.046, 0.183, 3.906, -1.343, 65.852, -81.238, 0.209, -38.142, -63.742, 23.842, 29.85, 0.63901, 0.41238, -0.54413, 0.3541,
 11:17:05.265,e8:9e:2c:53:09:e3, 2024-07-06 21:51:12:905, 0.979, 0.177, 0.066, 1.343, 3.723, -0.122, 64.292, -80.925, 1.56, -38.142, -63.742, 23.842, 29.85, 0.63901, 0.41238, -0.54413, 0.3541,
 11:17:05.385,e8:9e:2c:53:09:e3, 2024-07-06 21:51:13:005, 0.972, 0.173, 0.063, 1.587, 1.831, 0.427, 63.391, -80.777, 2.362, -38.142, -63.742, 23.842, 29.85, 0.63901, 0.41238, -0.54413, 0.3541,
 11:17:05.459,e8:9e:2c:53:09:e3, 2024-07-06 21:51:13:105, 0.982, 0.172, 0.062, 1.282, 2.38, -0.122, 62.908, -80.623, 2.752, -38.208, -63.850, 23.292, 29.85, 0.63901, 0.41238, -0.54413, 0.3541,
 11:17:05.580,e8:9e:2c:53:09:e3, 2024-07-06 21:51:13:205, 0.983, 0.167, 0.062, 2.93, -0.122, 1.587, 62.578, -80.596, 3.054, -38.208, -63.850, 23.292, 29.85, 0.64261, 0.41064, -0.54184, 0.35315,
 11:17:05.670,e8:9e:2c:53:09:e3, 2024-07-06 21:51:13:305, 0.982, 0.175, 0.05, -0.427, 0.977, -0.61, 62.946, -80.585, 2.62, -38.208, -63.850, 23.292, 29.85, 0.64261, 0.41064, -0.54184, 0.35315,
 11:17:05.790,e8:9e:2c:53:09:e3, 2024-07-06 21:51:13:405, 0.978, 0.173, 0.064, 0.671, 1.16, 0.183, 62.704, -80.453, 2.703, -38.167, -64.000, 23.117, 29.85, 0.64444, 0.4104, -0.54099, 0.35141,
 11:17:05.865,e8:9e:2c:53:09:e3, 2024-07-06 21:51:13:505, 0.973, 0.169, 0.063, 0.854, 2.502, 0, 62.309, -80.31, 3.148, -38.167, -64.000, 23.117, 29.85, 0.64444, 0.4104, -0.54099, 0.35141,
 11:17:05.986,e8:9e:2c:53:09:e3, 2024-07-06 21:51:13:605, 0.973, 0.18, 0.071, 0.916, 2.502, 0, 61.65, -80.134, 3.856, -38.167, -64.000, 23.117, 29.85, 0.64444, 0.4104, -0.54099, 0.35141,
 11:17:06.060,e8:9e:2c:53:09:e3, 2024-07-06 21:51:13:705, 0.976, 0.178, 0.074, 0.183, 1.831, 0.366, 61.046, -80.019, 4.515, -38.125, -64.275, 22.542, 29.85, 0.64444, 0.4104, -0.54099, 0.35141,
 11:17:06.194,e8:9e:2c:53:09:e3, 2024-07-06 21:51:13:805, 0.976, 0.175, 0.073, 0.732, 0.854, 1.221, 60.771, -79.991, 4.839, -38.125, -64.275, 22.542, 29.85, 0.64648, 0.41058, -0.53757, 0.35272,
 11:17:06.270,e8:9e:2c:53:09:e3, 2024-07-06 21:51:13:905, 0.981, 0.177, 0.072, 0.977, 0.427, 1.038, 60.765, -80.013, 4.966, -38.125, -64.275, 22.542, 29.85, 0.64648, 0.41058, -0.53757, 0.35272,
 11:17:06.406,e8:9e:2c:53:09:e3, 2024-07-06 21:51:14:005, 0.98, 0.175, 0.065, 1.16, 0.977, 0.61, 60.842, -80.03, 5.021, -38.300, -64.150, 22.750, 29.85, 0.64648, 0.41058, -0.53757, 0.35272,
 11:17:06.465,e8:9e:2c:53:09:e3, 2024-07-06 21:51:14:105, 0.977, 0.176, 0.07, 1.404, 1.892, 0.488, 60.535, -79.964, 5.532, -38.300, -64.150, 22.750, 29.85, 0.64536, 0.41248, -0.53574, 0.35535,
 11:17:06.585,e8:9e:2c:53:09:e3, 2024-07-06 21:51:14:205, 0.983, 0.174, 0.078, 1.587, 1.221, 1.587, 60.046, -79.904, 6.284, -38.300, -64.150, 22.750, 29.85, 0.64536, 0.41248, -0.53574, 0.35535,
 11:17:06.675,e8:9e:2c:53:09:e3, 2024-07-06 21:51:14:305, 0.979, 0.167, 0.07, 0.854, 1.465, 0.916, 59.766, -79.931, 6.861, -38.525, -64.233, 22.375, 29.85, 0.64536, 0.41248, -0.53574, 0.35535,
 11:17:06.795,e8:9e:2c:53:09:e3, 2024-07-06 21:51:14:405, 0.98, 0.17, 0.075, 1.343, 1.587, 0.977, 59.326, -79.871, 7.564, -38.525, -64.233, 22.375, 29.85, 0.64386, 0.41534, -0.53165, 0.36078,
 11:17:06.869,e8:9e:2c:53:09:e3, 2024-07-06 21:51:14:505, 0.977, 0.167, 0.074, 1.831, 2.014, 0.427, 58.909, -79.816, 8.344, -38.525, -64.233, 22.375, 29.85, 0.64386, 0.41534, -0.53165, 0.36078,
 11:17:06.992,e8:9e:2c:53:09:e3, 2024-07-06 21:51:14:605, 0.978, 0.173, 0.076, 1.587, 1.343, 0.488, 58.651, -79.739, 8.943, -38.725, -64.092, 22.358, 29.85, 0.64212, 0.41931, -0.52667, 0.36655,
 11:17:07.079,e8:9e:2c:53:09:e3, 2024-07-06 21:51:14:705, 0.979, 0.174, 0.075, 1.282, 2.014, 0.366, 58.387, -79.673, 9.525, -38.725, -64.092, 22.358, 29.74, 0.64212, 0.41931, -0.52667, 0.36655,
 11:17:07.200,e8:9e:2c:53:09:e3, 2024-07-06 21:51:14:805, 0.978, 0.176, 0.079, 1.526, 2.014, 0.549, 57.892, -79.59, 10.366, -38.725, -64.092, 22.358, 29.74, 0.64212, 0.41931, -0.52667, 0.36655,
 11:17:07.276,e8:9e:2c:53:09:e3, 2024-07-06 21:51:14:905, 0.98, 0.168, 0.083, 1.77, 1.221, 0.916, 57.48, -79.536, 11.129, -38.725, -64.092, 22.358, 29.74, 0.64212, 0.41931, -0.52667, 0.36655,
 11:17:07.396,e8:9e:2c:53:09:e3, 2024-07-06 21:51:15:005, 0.98, 0.169, 0.078, 1.404, 0.977, 0.671, 57.387, -79.53, 11.585, -38.725, -64.050, 22.092, 29.74, 0.63916, 0.42496, -0.51974, 0.375,
 11:17:07.515,e8:9e:2c:53:09:e3, 2024-07-06 21:51:15:105, 0.98, 0.169, 0.077, 1.038, 1.282, 0.061, 57.294, -79.475, 12.019, -38.725, -64.050, 22.092, 29.74, 0.63916, 0.42496, -0.51974, 0.375,
 11:17:07.590,e8:9e:2c:53:09:e3, 2024-07-06 21:51:15:205, 0.977, 0.17, 0.086, 0.671, 1.16, 0.305, 57.151, -79.393, 12.502, -38.725, -64.100, 22.100, 29.74, 0.63916, 0.42496, -0.51974, 0.375,
 11:17:07.680,e8:9e:2c:53:09:e3, 2024-07-06 21:51:15:305, 0.981, 0.169, 0.083, 1.038, 0.366, 0.671, 57.211, -79.376, 12.783, -38.725, -64.100, 22.100, 29.74, 0.63687, 0.42911, -0.51575, 0.37964,
 11:17:07.799,e8:9e:2c:53:09:e3, 2024-07-06 21:51:15:405, 0.977, 0.169, 0.081, 1.343, 0.366, 0.305, 57.415, -79.382, 12.936, -38.725, -64.100, 22.100, 29.74, 0.63687, 0.42911, -0.51575, 0.37964,
 11:17:07.890,e8:9e:2c:53:09:e3, 2024-07-06 21:51:15:505, 0.976, 0.173, 0.083, 1.343, 0.854, 0.305, 57.579, -79.349, 13.14, -38.825, -64.058, 22.325, 29.74, 0.63687, 0.42911, -0.51575, 0.37964,
 11:17:08.025,e8:9e:2c:53:09:e3, 2024-07-06 21:51:15:605, 0.979, 0.176, 0.086, 1.587, 0.732, 0.854, 57.618, -79.327, 13.535, -38.825, -64.058, 22.325, 29.74, 0.63351, 0.4343, -0.51163, 0.38492,
 11:17:08.087,e8:9e:2c:53:09:e3, 2024-07-06 21:51:15:705, 0.979, 0.173, 0.079, 1.038, 0.549, 0.61, 57.777, -79.343, 13.81, -38.825, -64.058, 22.325, 29.74, 0.63351, 0.4343, -0.51163, 0.38492,
 11:17:08.205,e8:9e:2c:53:09:e3, 2024-07-06 21:51:15:805, 0.983, 0.175, 0.08, 1.648, 1.038, 0.427, 57.887, -79.31, 14.139, -38.775, -64.100, 22.250, 29.74, 0.62949, 0.44016, -0.50668, 0.39136,
 11:17:08.280,e8:9e:2c:53:09:e3, 2024-07-06 21:51:15:905, 0.973, 0.166, 0.081, -0.061, 0.671, -0.183, 57.876, -79.261, 14.59, -38.775, -64.100, 22.250, 29.74, 0.62949, 0.44016, -0.50668, 0.39136,
 11:17:08.400,e8:9e:2c:53:09:e3, 2024-07-06 21:51:16:005, 0.979, 0.178, 0.084, 0.732, 0.671, 0.61, 58.079, -79.222, 14.672, -38.775, -64.100, 22.250, 29.74, 0.62949, 0.44016, -0.50668, 0.39136,
 11:17:08.492,e8:9e:2c:53:09:e3, 2024-07-06 21:51:16:105, 0.978, 0.174, 0.08, 1.099, 1.221, 0.183, 58.085, -79.206, 15.095, -38.542, -64.367, 21.842, 29.74, 0.62949, 0.44016, -0.50668, 0.39136,
 11:17:08.610,e8:9e:2c:53:09:e3, 2024-07-06 21:51:16:205, 0.979, 0.178, 0.082, 0.854, 1.038, 0.488, 58.052, -79.151, 15.568, -38.542, -64.367, 21.842, 29.74, 0.62592, 0.44586, -0.50137, 0.39743,
 11:17:08.715,e8:9e:2c:53:09:e3, 2024-07-06 21:51:16:305, 0.979, 0.174, 0.08, 1.648, 0.427, 1.282, 58.046, -79.178, 16.024, -38.542, -64.367, 21.842, 29.74, 0.62592, 0.44586, -0.50137, 0.39743,
 11:17:08.805,e8:9e:2c:53:09:e3, 2024-07-06 21:51:16:405, 0.979, 0.173, 0.078, 1.831, 0.549, 0.977, 58.123, -79.228, 16.447, -38.833, -64.242, 22.058, 29.74, 0.62592, 0.44586, -0.50137, 0.39743,
 11:17:08.895,e8:9e:2c:53:09:e3, 2024-07-06 21:51:16:505, 0.978, 0.173, 0.077, 1.221, 0.977, 1.038, 58.074, -79.255, 16.974, -38.833, -64.242, 22.058, 29.74, 0.62018, 0.45212, -0.49622, 0.4057,
 11:17:09.015,e8:9e:2c:53:09:e3, 2024-07-06 21:51:16:605, 0.977, 0.171, 0.079, 1.465, 1.16, 0.977, 57.881, -79.272, 17.672, -38.833, -64.242, 22.058, 29.74, 0.62018, 0.45212, -0.49622, 0.4057,
 11:17:09.092,e8:9e:2c:53:09:e3, 2024-07-06 21:51:16:705, 0.979, 0.172, 0.078, 1.77, 1.587, 0.732, 57.656, -79.261, 18.424, -38.833, -64.117, 21.992, 29.74, 0.62018, 0.45212, -0.49622, 0.4057,
 11:17:09.225,e8:9e:2c:53:09:e3, 2024-07-06 21:51:16:805, 0.978, 0.172, 0.082, 1.709, 1.709, 0.916, 57.272, -79.233, 19.347, -38.833, -64.117, 21.992, 29.74, 0.61526, 0.45776, -0.48987, 0.41452,
 11:17:09.285,e8:9e:2c:53:09:e3, 2024-07-06 21:51:16:905, 0.979, 0.169, 0.083, 2.625, 0.671, 1.465, 57.019, -79.261, 20.171, -38.833, -64.117, 21.992, 29.74, 0.61526, 0.45776, -0.48987, 0.41452,
 11:17:09.405,e8:9e:2c:53:09:e3, 2024-07-06 21:51:17:005, 0.981, 0.17, 0.081, 3.052, 0.427, 1.709, 57.107, -79.371, 20.726, -39.075, -63.950, 22.300, 29.74, 0.60818, 0.46436, -0.48422, 0.42416,
 11:17:09.495,e8:9e:2c:53:09:e3, 2024-07-06 21:51:17:105, 0.978, 0.168, 0.078, 2.014, 0.793, 1.221, 57.074, -79.442, 21.346, -39.075, -63.950, 22.300, 29.74, 0.60818, 0.46436, -0.48422, 0.42416,
 11:17:09.615,e8:9e:2c:53:09:e3, 2024-07-06 21:51:17:205, 0.978, 0.166, 0.081, 1.77, 1.038, 0.916, 56.964, -79.459, 22.011, -39.075, -63.950, 22.300, 29.74, 0.60818, 0.46436, -0.48422, 0.42416,
 11:17:09.691,e8:9e:2c:53:09:e3, 2024-07-06 21:51:17:305, 0.983, 0.167, 0.081, 1.526, 0.366, 1.221, 56.981, -79.497, 22.538, -38.975, -63.633, 22.333, 29.74, 0.60818, 0.46436, -0.48422, 0.42416,
 11:17:09.825,e8:9e:2c:53:09:e3, 2024-07-06 21:51:17:405, 0.977, 0.164, 0.077, 0.61, 0.183, 0.732, 57.2, -79.563, 22.786, -38.975, -63.633, 22.333, 29.74, 0.6011, 0.47131, -0.47821, 0.43326,
 11:17:09.901,e8:9e:2c:53:09:e3, 2024-07-06 21:51:17:505, 0.98, 0.167, 0.08, 1.343, 0.366, 0.854, 57.365, -79.59, 23.071, -38.975, -63.633, 22.333, 29.74, 0.6011, 0.47131, -0.47821, 0.43326,
 11:17:10.035,e8:9e:2c:53:09:e3, 2024-07-06 21:51:17:605, 0.981, 0.16, 0.075, 0.977, 0, 0.793, 57.64, -79.667, 23.357, -38.950, -63.508, 22.283, 29.74, 0.6011, 0.47131, -0.47821, 0.43326,
 11:17:10.095,e8:9e:2c:53:09:e3, 2024-07-06 21:51:17:705, 0.98, 0.166, 0.072, 1.404, 1.038, -0.427, 57.958, -79.651, 23.533, -38.950, -63.508, 22.283, 29.74, 0.59494, 0.47772, -0.47336, 0.44006,
 11:17:10.215,e8:9e:2c:53:09:e3, 2024-07-06 21:51:17:805, 0.979, 0.165, 0.075, 1.404, -0.061, 0.488, 58.217, -79.612, 23.774, -38.950, -63.508, 22.283, 29.74, 0.59494, 0.47772, -0.47336, 0.44006,
 11:17:10.291,e8:9e:2c:53:09:e3, 2024-07-06 21:51:17:905, 0.982, 0.167, 0.075, 0.61, -0.427, -0.183, 58.744, -79.64, 23.67, -38.783, -63.842, 22.883, 29.74, 0.59494, 0.47772, -0.47336, 0.44006,
 11:17:10.439,e8:9e:2c:53:09:e3, 2024-07-06 21:51:18:005, 0.981, 0.164, 0.069, 0.732, 0.183, 0.061, 59.343, -79.645, 23.461, -38.783, -63.842, 22.883, 29.74, 0.58896, 0.48523, -0.46762, 0.44598,
 11:17:10.501,e8:9e:2c:53:09:e3, 2024-07-06 21:51:18:105, 0.98, 0.167, 0.069, 1.282, 1.526, -0.183, 59.535, -79.601, 23.818, -38.783, -63.842, 22.883, 29.74, 0.58896, 0.48523, -0.46762, 0.44598,
 11:17:10.620,e8:9e:2c:53:09:e3, 2024-07-06 21:51:18:205, 0.979, 0.169, 0.07, 1.221, 1.648, 0.061, 59.474, -79.514, 24.456, -38.692, -64.050, 22.800, 29.74, 0.58453, 0.49106, -0.46085, 0.45242,
 11:17:10.696,e8:9e:2c:53:09:e3, 2024-07-06 21:51:18:305, 0.98, 0.172, 0.073, 1.831, 1.221, 0.061, 59.387, -79.437, 25.12, -38.692, -64.050, 22.800, 29.74, 0.58453, 0.49106, -0.46085, 0.45242,
 11:17:10.829,e8:9e:2c:53:09:e3, 2024-07-06 21:51:18:405, 0.979, 0.175, 0.074, 0.671, 0.488, 0, 59.469, -79.387, 25.521, -38.533, -64.075, 22.525, 29.74, 0.57999, 0.49631, -0.45523, 0.45819,
 11:17:10.905,e8:9e:2c:53:09:e3, 2024-07-06 21:51:18:505, 0.979, 0.169, 0.075, 1.526, -0.305, 1.221, 59.771, -79.442, 25.741, -38.533, -64.075, 22.525, 29.74, 0.57999, 0.49631, -0.45523, 0.45819,
 11:17:11.025,e8:9e:2c:53:09:e3, 2024-07-06 21:51:18:605, 0.984, 0.17, 0.072, 0.854, -1.038, 0.793, 60.397, -79.536, 25.62, -38.533, -64.075, 22.525, 29.74, 0.57999, 0.49631, -0.45523, 0.45819,
 11:17:11.101,e8:9e:2c:53:09:e3, 2024-07-06 21:51:18:705, 0.978, 0.169, 0.061, 0.732, -0.244, 0.122, 61.166, -79.596, 25.323, -38.383, -64.092, 22.692, 29.74, 0.57999, 0.49631, -0.45523, 0.45819,
 11:17:11.220,e8:9e:2c:53:09:e3, 2024-07-06 21:51:18:805, 0.979, 0.17, 0.064, 1.038, 1.16, 0.122, 61.392, -79.563, 25.631, -38.383, -64.092, 22.692, 29.74, 0.57214, 0.50421, -0.44986, 0.46466,
 11:17:11.309,e8:9e:2c:53:09:e3, 2024-07-06 21:51:18:905, 0.98, 0.173, 0.067, 1.221, 0.793, 0.732, 61.386, -79.547, 26.213, -38.383, -64.092, 22.692, 29.74, 0.57214, 0.50421, -0.44986, 0.46466,
 11:17:11.430,e8:9e:2c:53:09:e3, 2024-07-06 21:51:19:005, 0.979, 0.171, 0.065, 1.221, 1.404, 0.732, 61.26, -79.552, 26.911, -38.300, -63.983, 22.725, 29.74, 0.56567, 0.51035, -0.44211, 0.47324,
 11:17:11.505,e8:9e:2c:53:09:e3, 2024-07-06 21:51:19:105, 0.978, 0.172, 0.068, 1.221, 2.075, 0.549, 60.875, -79.514, 27.911, -38.300, -63.983, 22.725, 29.74, 0.56567, 0.51035, -0.44211, 0.47324,
 11:17:11.625,e8:9e:2c:53:09:e3, 2024-07-06 21:51:19:205, 0.978, 0.174, 0.069, 1.465, 2.075, 0.61, 60.425, -79.448, 28.993, -38.300, -63.983, 22.725, 29.74, 0.56567, 0.51035, -0.44211, 0.47324,
 11:17:11.701,e8:9e:2c:53:09:e3, 2024-07-06 21:51:19:305, 0.981, 0.171, 0.073, 1.404, 0.977, 1.099, 60.112, -79.442, 29.91, -38.342, -64.017, 22.792, 29.74, 0.56567, 0.51035, -0.44211, 0.47324,
 11:17:11.835,e8:9e:2c:53:09:e3, 2024-07-06 21:51:19:405, 0.981, 0.17, 0.069, 1.465, 1.16, 0.793, 60.018, -79.47, 30.597, -38.342, -64.017, 22.792, 29.74, 0.55801, 0.51694, -0.43253, 0.48395,
 11:17:11.910,e8:9e:2c:53:09:e3, 2024-07-06 21:51:19:505, 0.979, 0.171, 0.071, 1.221, 1.526, 0.488, 59.782, -79.442, 31.426, -38.342, -64.017, 22.792, 29.74, 0.55801, 0.51694, -0.43253, 0.48395,
 11:17:12.029,e8:9e:2c:53:09:e3, 2024-07-06 21:51:19:605, 0.977, 0.171, 0.074, 0.793, 1.587, 0.549, 59.518, -79.398, 32.261, -38.625, -64.058, 22.758, 29.74, 0.55209, 0.52213, -0.42465, 0.4921,
 11:17:12.105,e8:9e:2c:53:09:e3, 2024-07-06 21:51:19:705, 0.979, 0.172, 0.076, 1.16, 1.343, 0.916, 59.249, -79.371, 33.107, -38.625, -64.058, 22.758, 29.74, 0.55209, 0.52213, -0.42465, 0.4921,
 11:17:12.225,e8:9e:2c:53:09:e3, 2024-07-06 21:51:19:805, 0.98, 0.17, 0.075, 1.282, 0.977, 0.854, 59.068, -79.376, 33.865, -38.625, -64.058, 22.758, 29.74, 0.55209, 0.52213, -0.42465, 0.4921,
 11:17:12.317,e8:9e:2c:53:09:e3, 2024-07-06 21:51:19:905, 0.979, 0.171, 0.072, 1.282, 1.038, 0.549, 59.057, -79.382, 34.448, -38.700, -64.108, 22.517, 29.74, 0.55209, 0.52213, -0.42465, 0.4921,
 11:17:12.450,e8:9e:2c:53:09:e3, 2024-07-06 21:51:20:005, 0.978, 0.17, 0.074, 1.343, 1.16, 0.671, 58.964, -79.371, 35.107, -38.700, -64.108, 22.517, 29.74, 0.5441, 0.52853, -0.41602, 0.5014,
 11:17:12.509,e8:9e:2c:53:09:e3, 2024-07-06 21:51:20:105, 0.98, 0.171, 0.076, 1.221, 1.099, 0.61, 58.843, -79.354, 35.804, -38.700, -64.108, 22.517, 29.74, 0.5441, 0.52853, -0.41602, 0.5014,
 11:17:12.631,e8:9e:2c:53:09:e3, 2024-07-06 21:51:20:205, 0.979, 0.169, 0.075, 1.16, 0.977, 0.549, 58.815, -79.354, 36.392, -38.758, -63.917, 22.583, 29.74, 0.5441, 0.52853, -0.41602, 0.5014,
 11:17:12.720,e8:9e:2c:53:09:e3, 2024-07-06 21:51:20:305, 0.979, 0.17, 0.075, 1.404, 1.16, 0.427, 58.771, -79.343, 37.007, -38.758, -63.917, 22.583, 29.74, 0.53677, 0.53448, -0.40787, 0.50961,
 11:17:12.839,e8:9e:2c:53:09:e3, 2024-07-06 21:51:20:405, 0.979, 0.17, 0.074, 1.221, 1.16, 0.427, 58.749, -79.316, 37.606, -38.758, -63.917, 22.583, 29.74, 0.53677, 0.53448, -0.40787, 0.50961,
 11:17:12.931,e8:9e:2c:53:09:e3, 2024-07-06 21:51:20:505, 0.979, 0.17, 0.075, 1.221, 1.038, 0.305, 58.716, -79.283, 38.199, -38.642, -64.175, 22.217, 29.74, 0.53677, 0.53448, -0.40787, 0.50961,
 11:17:13.035,e8:9e:2c:53:09:e3, 2024-07-06 21:51:20:605, 0.981, 0.173, 0.075, 1.282, 1.099, 0.366, 58.716, -79.255, 38.765, -38.642, -64.175, 22.217, 29.74, 0.52838, 0.54147, -0.39786, 0.51883,
 11:17:13.128,e8:9e:2c:53:09:e3, 2024-07-06 21:51:20:705, 0.979, 0.173, 0.072, 1.099, 0.793, 0.183, 58.804, -79.239, 39.216, -38.642, -64.175, 22.217, 29.74, 0.52838, 0.54147, -0.39786, 0.51883,
 11:17:13.245,e8:9e:2c:53:09:e3, 2024-07-06 21:51:20:805, 0.979, 0.172, 0.077, 1.099, 1.221, 0.061, 58.837, -79.184, 39.71, -38.617, -64.100, 22.483, 29.74, 0.52332, 0.54587, -0.39151, 0.5242,
 11:17:13.321,e8:9e:2c:53:09:e3, 2024-07-06 21:51:20:905, 0.98, 0.172, 0.077, 1.404, 1.038, 0.305, 58.81, -79.146, 40.298, -38.617, -64.100, 22.483, 29.74, 0.52332, 0.54587, -0.39151, 0.5242,
 11:17:13.455,e8:9e:2c:53:09:e3, 2024-07-06 21:51:21:005, 0.975, 0.173, 0.073, 1.16, 1.099, 0.305, 58.815, -79.124, 40.847, -38.617, -64.100, 22.483, 29.74, 0.52332, 0.54587, -0.39151, 0.5242,
 11:17:13.516,e8:9e:2c:53:09:e3, 2024-07-06 21:51:21:105, 0.973, 0.175, 0.08, 0.977, 1.526, 0.366, 58.661, -79.069, 41.556, -38.417, -64.358, 22.342, 29.74, 0.52332, 0.54587, -0.39151, 0.5242,
 11:17:13.635,e8:9e:2c:53:09:e3, 2024-07-06 21:51:21:205, 0.978, 0.174, 0.085, 0.61, 0.61, 0.793, 58.607, -79.052, 42.155, -38.417, -64.358, 22.342, 29.74, 0.51556, 0.55185, -0.38205, 0.53253,
 11:17:13.725,e8:9e:2c:53:09:e3, 2024-07-06 21:51:21:305, 0.979, 0.177, 0.08, 1.648, 0.549, 0, 58.881, -79.036, 42.429, -38.417, -64.358, 22.342, 29.74, 0.51556, 0.55185, -0.38205, 0.53253,
 11:17:13.844,e8:9e:2c:53:09:e3, 2024-07-06 21:51:21:405, 0.979, 0.176, 0.075, 2.258, 0.183, 0.916, 59.266, -79.058, 42.654, -38.550, -64.317, 22.417, 29.74, 0.50781, 0.55798, -0.37476, 0.5387,
 11:17:13.935,e8:9e:2c:53:09:e3, 2024-07-06 21:51:21:505, 0.979, 0.173, 0.075, 2.075, 0.916, 0.732, 59.453, -79.096, 43.11, -38.550, -64.317, 22.417, 29.74, 0.50781, 0.55798, -0.37476, 0.5387,
 11:17:14.040,e8:9e:2c:53:09:e3, 2024-07-06 21:51:21:605, 0.981, 0.175, 0.075, 1.16, 3.052, 0, 59.178, -79.019, 44.061, -38.550, -64.317, 22.417, 29.74, 0.50781, 0.55798, -0.37476, 0.5387,
 11:17:14.131,e8:9e:2c:53:09:e3, 2024-07-06 21:51:21:705, 0.977, 0.173, 0.083, 1.221, 2.136, 0.244, 58.458, -78.904, 45.417, -38.658, -64.325, 22.325, 29.74, 0.50781, 0.55798, -0.37476, 0.5387,
 11:17:14.249,e8:9e:2c:53:09:e3, 2024-07-06 21:51:21:805, 0.981, 0.179, 0.083, -0.183, 1.099, 0.549, 58.2, -78.838, 46.198, -38.658, -64.325, 22.325, 29.74, 0.49976, 0.56317, -0.36304, 0.54877,
 11:17:14.325,e8:9e:2c:53:09:e3, 2024-07-06 21:51:21:905, 0.979, 0.174, 0.08, 0.183, 1.221, 0.732, 58.03, -78.843, 46.813, -38.658, -64.325, 22.325, 29.74, 0.49976, 0.56317, -0.36304, 0.54877,
 11:17:14.445,e8:9e:2c:53:09:e3, 2024-07-06 21:51:22:005, 0.98, 0.176, 0.083, 0.793, 1.404, 0.916, 57.7, -78.827, 47.648, -38.658, -64.392, 22.008, 29.74, 0.49326, 0.56662, -0.35617, 0.55554,
 11:17:14.550,e8:9e:2c:53:09:e3, 2024-07-06 21:51:22:105, 0.968, 0.172, 0.083, 0.427, 1.221, 0.854, 57.426, -78.832, 48.444, -38.658, -64.392, 22.008, 29.74, 0.49326, 0.56662, -0.35617, 0.55554,
 11:17:14.655,e8:9e:2c:53:09:e3, 2024-07-06 21:51:22:205, 0.98, 0.164, 0.083, -1.465, 1.526, 0.488, 57.151, -78.794, 49.191, -38.783, -64.483, 21.808, 29.74, 0.49326, 0.56662, -0.35617, 0.55554,
 11:17:14.745,e8:9e:2c:53:09:e3, 2024-07-06 21:51:22:305, 0.975, 0.172, 0.082, 0.793, 1.282, 0.671, 56.964, -78.783, 49.872, -38.783, -64.483, 21.808, 29.74, 0.48795, 0.56958, -0.34995, 0.56119,
 11:17:14.850,e8:9e:2c:53:09:e3, 2024-07-06 21:51:22:405, 0.978, 0.177, 0.088, 0.854, 1.343, 0.183, 56.816, -78.739, 50.554, -38.783, -64.483, 21.808, 29.74, 0.48795, 0.56958, -0.34995, 0.56119,
 11:17:14.940,e8:9e:2c:53:09:e3, 2024-07-06 21:51:22:505, 0.976, 0.176, 0.086, 0.488, 1.16, 0.305, 56.733, -78.701, 51.136, -38.875, -64.483, 21.633, 29.74, 0.48795, 0.56958, -0.34995, 0.56119,
 11:17:15.045,e8:9e:2c:53:09:e3, 2024-07-06 21:51:22:605, 0.981, 0.175, 0.092, 1.526, 0.977, 0.977, 56.563, -78.684, 51.817, -38.875, -64.483, 21.633, 29.74, 0.48141, 0.57346, -0.34213, 0.56763,
 11:17:15.135,e8:9e:2c:53:09:e3, 2024-07-06 21:51:22:705, 0.977, 0.174, 0.083, 1.587, 1.038, 0.793, 56.475, -78.695, 52.493, -38.875, -64.483, 21.633, 29.74, 0.48141, 0.57346, -0.34213, 0.56763,
 11:17:15.255,e8:9e:2c:53:09:e3, 2024-07-06 21:51:22:805, 0.977, 0.174, 0.089, 1.526, 0.671, 1.099, 56.365, -78.717, 53.163, -39.058, -64.375, 21.692, 29.74, 0.47296, 0.57803, -0.33423, 0.57474,
 11:17:15.329,e8:9e:2c:53:09:e3, 2024-07-06 21:51:22:905, 0.978, 0.175, 0.085, 1.465, 0.793, 1.038, 56.349, -78.739, 53.762, -39.058, -64.375, 21.692, 29.74, 0.47296, 0.57803, -0.33423, 0.57474,
 11:17:15.450,e8:9e:2c:53:09:e3, 2024-07-06 21:51:23:005, 0.976, 0.17, 0.091, 1.648, 1.16, 0.793, 56.19, -78.745, 54.52, -39.058, -64.375, 21.692, 29.74, 0.47296, 0.57803, -0.33423, 0.57474,
 11:17:15.540,e8:9e:2c:53:09:e3, 2024-07-06 21:51:23:105, 0.979, 0.174, 0.09, 1.831, 0.671, 0.854, 56.063, -78.75, 55.206, -39.075, -64.400, 21.467, 29.74, 0.47296, 0.57803, -0.33423, 0.57474,
 11:17:15.675,e8:9e:2c:53:09:e3, 2024-07-06 21:51:23:205, 0.978, 0.174, 0.087, 1.099, 0.549, 0.916, 56.118, -78.783, 55.684, -39.075, -64.400, 21.467, 29.74, 0.46329, 0.58313, -0.32513, 0.58267,
 11:17:15.735,e8:9e:2c:53:09:e3, 2024-07-06 21:51:23:305, 0.978, 0.173, 0.087, 1.526, 0.549, 0.916, 56.168, -78.827, 56.173, -39.075, -64.400, 21.467, 29.74, 0.46329, 0.58313, -0.32513, 0.58267,
 11:17:15.871,e8:9e:2c:53:09:e3, 2024-07-06 21:51:23:405, 0.982, 0.172, 0.089, 1.526, 0.793, 1.099, 56.173, -78.86, 56.75, -39.083, -64.267, 21.717, 29.74, 0.46329, 0.58313, -0.32513, 0.58267,
 11:17:15.975,e8:9e:2c:53:09:e3, 2024-07-06 21:51:23:505, 0.979, 0.173, 0.084, 2.38, 0.793, 0.977, 56.255, -78.915, 57.343, -39.083, -64.267, 21.717, 29.74, 0.45343, 0.58835, -0.31689, 0.58966,
 11:17:16.065,e8:9e:2c:53:09:e3, 2024-07-06 21:51:23:605, 0.979, 0.169, 0.088, 1.648, 0.427, 0.61, 56.349, -78.931, 57.859, -39.083, -64.267, 21.717, 29.74, 0.45343, 0.58835, -0.31689, 0.58966,
 11:17:16.171,e8:9e:2c:53:09:e3, 2024-07-06 21:51:23:705, 0.982, 0.17, 0.086, 1.404, -0.305, 0.916, 56.558, -78.986, 58.129, -39.058, -64.175, 21.775, 29.74, 0.45343, 0.58835, -0.31689, 0.58966,
 11:17:16.290,e8:9e:2c:53:09:e3, 2024-07-06 21:51:23:805, 0.979, 0.17, 0.079, 1.587, 0.671, 0.305, 56.887, -79.036, 58.343, -39.058, -64.175, 21.775, 29.74, 0.44388, 0.5939, -0.30875, 0.59567,
 11:17:16.337,e8:9e:2c:53:09:e3, 2024-07-06 21:51:23:905, 0.978, 0.171, 0.083, 1.16, 1.099, 0.061, 56.986, -78.992, 58.815, -39.058, -64.175, 21.775, 29.74, 0.44388, 0.5939, -0.30875, 0.59567,
 11:17:16.455,e8:9e:2c:53:09:e3, 2024-07-06 21:51:24:005, 0.979, 0.172, 0.084, 1.587, 0.488, 0.732, 57.052, -78.986, 59.293, -38.917, -64.217, 21.967, 29.74, 0.43683, 0.59781, -0.30148, 0.60068,
 11:17:16.545,e8:9e:2c:53:09:e3, 2024-07-06 21:51:24:105, 0.979, 0.172, 0.083, 1.221, 0.305, 0.671, 57.211, -79.019, 59.672, -38.917, -64.217, 21.967, 29.74, 0.43683, 0.59781, -0.30148, 0.60068,
 11:17:16.665,e8:9e:2c:53:09:e3, 2024-07-06 21:51:24:205, 0.98, 0.17, 0.082, 0.916, 1.099, 0.366, 57.277, -79.025, 60.139, -38.917, -64.217, 21.967, 29.74, 0.43683, 0.59781, -0.30148, 0.60068,
 11:17:16.741,e8:9e:2c:53:09:e3, 2024-07-06 21:51:24:305, 0.979, 0.17, 0.083, 1.221, 1.099, 0.427, 57.233, -78.997, 60.749, -38.917, -64.175, 21.875, 29.74, 0.43683, 0.59781, -0.30148, 0.60068,
 11:17:16.861,e8:9e:2c:53:09:e3, 2024-07-06 21:51:24:405, 0.978, 0.171, 0.081, 1.221, 0.977, 0.305, 57.239, -78.975, 61.287, -38.917, -64.175, 21.875, 29.74, 0.42795, 0.60236, -0.29224, 0.60706,
 11:17:16.965,e8:9e:2c:53:09:e3, 2024-07-06 21:51:24:505, 0.979, 0.174, 0.084, 1.282, 1.038, 0.305, 57.239, -78.937, 61.837, -38.917, -64.175, 21.875, 29.74, 0.42795, 0.60236, -0.29224, 0.60706,
 11:17:17.071,e8:9e:2c:53:09:e3, 2024-07-06 21:51:24:605, 0.976, 0.173, 0.081, 1.282, 0.916, 0.488, 57.266, -78.926, 62.358, -38.775, -64.292, 21.917, 29.74, 0.42004, 0.60623, -0.28366, 0.61273,
 11:17:17.161,e8:9e:2c:53:09:e3, 2024-07-06 21:51:24:705, 0.98, 0.177, 0.086, 1.343, 0.977, 0.61, 57.261, -78.915, 62.935, -38.775, -64.292, 21.917, 29.74, 0.42004, 0.60623, -0.28366, 0.61273,
 11:17:17.265,e8:9e:2c:53:09:e3, 2024-07-06 21:51:24:805, 0.978, 0.173, 0.08, 1.465, 1.16, 0.671, 57.206, -78.92, 63.561, -38.775, -64.292, 21.917, 29.74, 0.42004, 0.60623, -0.28366, 0.61273,
 11:17:17.340,e8:9e:2c:53:09:e3, 2024-07-06 21:51:24:905, 0.979, 0.174, 0.084, 1.282, 1.16, 0.549, 57.079, -78.898, 64.265, -38.792, -64.367, 21.725, 29.74, 0.42004, 0.60623, -0.28366, 0.61273,
 11:17:17.474,e8:9e:2c:53:09:e3, 2024-07-06 21:51:25:005, 0.979, 0.172, 0.083, 1.465, 1.221, 0.732, 56.975, -78.893, 64.94, -38.792, -64.367, 21.725, 29.74, 0.41003, 0.61044, -0.27353, 0.6199,
 11:17:17.550,e8:9e:2c:53:09:e3, 2024-07-06 21:51:25:105, 0.977, 0.172, 0.085, 0.854, 1.77, 0.366, 56.788, -78.865, 65.709, -38.792, -64.367, 21.725, 29.74, 0.41003, 0.61044, -0.27353, 0.6199,
 11:17:17.670,e8:9e:2c:53:09:e3, 2024-07-06 21:51:25:205, 0.977, 0.172, 0.09, 1.343, 1.221, 0.977, 56.481, -78.821, 66.588, -38.825, -64.217, 21.950, 29.74, 0.4014, 0.61353, -0.26456, 0.6264,
 11:17:17.745,e8:9e:2c:53:09:e3, 2024-07-06 21:51:25:305, 0.978, 0.173, 0.087, 1.343, 0.793, 0.854, 56.387, -78.849, 67.236, -38.825, -64.217, 21.950, 29.74, 0.4014, 0.61353, -0.26456, 0.6264,
 11:17:17.880,e8:9e:2c:53:09:e3, 2024-07-06 21:51:25:405, 0.981, 0.17, 0.087, 1.099, 0.732, 1.038, 56.349, -78.882, 67.835, -38.825, -64.217, 21.950, 29.74, 0.4014, 0.61353, -0.26456, 0.6264,
 11:17:17.955,e8:9e:2c:53:09:e3, 2024-07-06 21:51:25:505, 0.979, 0.171, 0.085, 1.221, 1.038, 0.61, 56.294, -78.904, 68.445, -39.092, -64.258, 21.850, 29.74, 0.4014, 0.61353, -0.26456, 0.6264,
 11:17:18.075,e8:9e:2c:53:09:e3, 2024-07-06 21:51:25:605, 0.978, 0.173, 0.085, 1.465, 1.099, 0.793, 56.228, -78.898, 69.071, -39.092, -64.258, 21.850, 29.74, 0.39108, 0.61749, -0.25519, 0.63284,
 11:17:18.150,e8:9e:2c:53:09:e3, 2024-07-06 21:51:25:705, 0.979, 0.172, 0.087, 1.404, 0.977, 0.671, 56.129, -78.904, 69.747, -39.092, -64.258, 21.850, 29.74, 0.39108, 0.61749, -0.25519, 0.63284,
 11:17:18.270,e8:9e:2c:53:09:e3, 2024-07-06 21:51:25:805, 0.979, 0.171, 0.084, 1.221, 1.099, 0.671, 56.091, -78.909, 70.34, -38.983, -64.208, 22.033, 29.74, 0.38257, 0.62061, -0.24707, 0.63824,
 11:17:18.359,e8:9e:2c:53:09:e3, 2024-07-06 21:51:25:905, 0.978, 0.172, 0.087, 1.282, 0.977, 0.732, 55.992, -78.909, 70.994, -38.983, -64.208, 22.033, 29.74, 0.38257, 0.62061, -0.24707, 0.63824,
 11:17:18.479,e8:9e:2c:53:09:e3, 2024-07-06 21:51:26:005, 0.979, 0.172, 0.087, 1.282, 0.854, 0.854, 55.948, -78.92, 71.598, -38.983, -64.208, 22.033, 29.74, 0.38257, 0.62061, -0.24707, 0.63824,
 11:17:18.555,e8:9e:2c:53:09:e3, 2024-07-06 21:51:26:105, 0.978, 0.169, 0.085, 1.526, 0.977, 0.732, 55.887, -78.937, 72.213, -38.933, -64.183, 21.967, 29.74, 0.38257, 0.62061, -0.24707, 0.63824,
 11:17:18.676,e8:9e:2c:53:09:e3, 2024-07-06 21:51:26:205, 0.981, 0.17, 0.088, 1.526, 0.732, 0.977, 55.849, -78.948, 72.834, -38.933, -64.183, 21.967, 29.74, 0.37256, 0.62415, -0.23782, 0.64417,
 11:17:18.780,e8:9e:2c:53:09:e3, 2024-07-06 21:51:26:305, 0.978, 0.169, 0.084, 1.587, 1.099, 0.671, 55.822, -78.97, 73.438, -38.933, -64.183, 21.967, 29.74, 0.37256, 0.62415, -0.23782, 0.64417,
 11:17:18.886,e8:9e:2c:53:09:e3, 2024-07-06 21:51:26:405, 0.98, 0.17, 0.089, 1.526, 0.793, 0.977, 55.739, -78.992, 74.103, -39.000, -64.108, 22.083, 29.74, 0.36285, 0.62747, -0.22931, 0.64957,
 11:17:18.960,e8:9e:2c:53:09:e3, 2024-07-06 21:51:26:505, 0.979, 0.167, 0.086, 1.282, 0.732, 0.793, 55.728, -79.019, 74.674, -39.000, -64.108, 22.083, 29.74, 0.36285, 0.62747, -0.22931, 0.64957,
 11:17:19.081,e8:9e:2c:53:09:e3, 2024-07-06 21:51:26:605, 0.98, 0.168, 0.087, 1.221, 0.732, 0.732, 55.761, -79.036, 75.201, -39.000, -64.108, 22.083, 29.74, 0.36285, 0.62747, -0.22931, 0.64957,
 11:17:19.201,e8:9e:2c:53:09:e3, 2024-07-06 21:51:26:705, 0.98, 0.167, 0.084, 2.014, 0.671, 1.099, 55.789, -79.085, 75.762, -39.192, -63.900, 21.858, 29.74, 0.36285, 0.62747, -0.22931, 0.64957,
 11:17:19.275,e8:9e:2c:53:09:e3, 2024-07-06 21:51:26:805, 0.98, 0.167, 0.085, 1.953, 0.793, 0.977, 55.767, -79.129, 76.421, -39.192, -63.900, 21.858, 29.74, 0.35129, 0.63144, -0.21948, 0.65543,
 11:17:19.365,e8:9e:2c:53:09:e3, 2024-07-06 21:51:26:905, 0.977, 0.166, 0.085, 1.587, 0.977, 0.854, 55.706, -79.156, 77.064, -39.192, -63.900, 21.858, 29.74, 0.35129, 0.63144, -0.21948, 0.65543,
 11:17:19.500,e8:9e:2c:53:09:e3, 2024-07-06 21:51:27:005, 0.981, 0.167, 0.087, 1.892, 0.916, 0.793, 55.635, -79.162, 77.739, -39.175, -63.783, 22.067, 29.74, 0.34171, 0.63437, -0.21088, 0.66046,
 11:17:19.559,e8:9e:2c:53:09:e3, 2024-07-06 21:51:27:105, 0.979, 0.164, 0.084, 1.709, 1.221, 0.549, 55.585, -79.167, 78.404, -39.175, -63.783, 22.067, 29.74, 0.34171, 0.63437, -0.21088, 0.66046,
 11:17:19.680,e8:9e:2c:53:09:e3, 2024-07-06 21:51:27:205, 0.981, 0.167, 0.087, 1.282, 0.916, 0.488, 55.591, -79.151, 78.997, -39.175, -63.783, 22.067, 29.74, 0.34171, 0.63437, -0.21088, 0.66046,
 11:17:19.770,e8:9e:2c:53:09:e3, 2024-07-06 21:51:27:305, 0.981, 0.166, 0.085, 0.854, 0.366, 0.488, 55.723, -79.162, 79.393, -39.092, -63.650, 22.283, 29.74, 0.34171, 0.63437, -0.21088, 0.66046,
 11:17:19.906,e8:9e:2c:53:09:e3, 2024-07-06 21:51:27:405, 0.979, 0.167, 0.086, 0.61, 0.549, 0.122, 55.948, -79.162, 79.64, -39.092, -63.650, 22.283, 29.74, 0.33148, 0.63794, -0.20081, 0.66534,
 11:17:19.965,e8:9e:2c:53:09:e3, 2024-07-06 21:51:27:505, 0.981, 0.167, 0.086, 0.793, 0.793, 0.366, 56.102, -79.146, 79.986, -39.092, -63.650, 22.283, 29.74, 0.33148, 0.63794, -0.20081, 0.66534,
 11:17:20.086,e8:9e:2c:53:09:e3, 2024-07-06 21:51:27:605, 0.98, 0.166, 0.083, 1.221, 0.854, 0.366, 56.217, -79.14, 80.431, -39.092, -63.975, 22.117, 29.74, 0.33148, 0.63794, -0.20081, 0.66534,
 11:17:20.175,e8:9e:2c:53:09:e3, 2024-07-06 21:51:27:705, 0.98, 0.167, 0.083, 1.709, 0.793, 0.488, 56.239, -79.135, 80.964, -39.092, -63.975, 22.117, 29.74, 0.32199, 0.64111, -0.19122, 0.6698,
 11:17:20.295,e8:9e:2c:53:09:e3, 2024-07-06 21:51:27:805, 0.98, 0.169, 0.083, 1.526, 0.977, 0.488, 56.261, -79.124, 81.519, -39.092, -63.975, 22.117, 29.74, 0.32199, 0.64111, -0.19122, 0.6698,
 11:17:20.400,e8:9e:2c:53:09:e3, 2024-07-06 21:51:27:905, 0.977, 0.167, 0.083, 0.793, 0.793, 0.427, 56.283, -79.118, 82.029, -38.992, -63.917, 22.158, 29.74, 0.32199, 0.64111, -0.19122, 0.6698,
 11:17:20.490,e8:9e:2c:53:09:e3, 2024-07-06 21:51:28:005, 0.978, 0.17, 0.083, 0.977, 1.343, 0.305, 56.25, -79.08, 82.579, -38.992, -63.917, 22.158, 29.74, 0.31326, 0.64355, -0.18228, 0.67407,
 11:17:20.580,e8:9e:2c:53:09:e3, 2024-07-06 21:51:28:105, 0.98, 0.17, 0.085, 1.343, 1.282, 0.671, 56.135, -79.052, 83.26, -38.992, -63.917, 22.158, 29.74, 0.31326, 0.64355, -0.18228, 0.67407,
 11:17:20.685,e8:9e:2c:53:09:e3, 2024-07-06 21:51:28:205, 0.979, 0.167, 0.086, 1.404, 1.343, 0.488, 55.953, -79.025, 84.034, -39.108, -63.925, 21.942, 29.74, 0.30396, 0.64548, -0.17285, 0.67896,
 11:17:20.776,e8:9e:2c:53:09:e3, 2024-07-06 21:51:28:305, 0.977, 0.169, 0.086, 1.282, 1.099, 0.732, 55.827, -79.014, 84.738, -39.108, -63.925, 21.942, 29.74, 0.30396, 0.64548, -0.17285, 0.67896,
 11:17:20.896,e8:9e:2c:53:09:e3, 2024-07-06 21:51:28:405, 0.979, 0.169, 0.088, 1.282, 1.221, 0.671, 55.684, -79.003, 85.463, -39.108, -63.925, 21.942, 29.74, 0.30396, 0.64548, -0.17285, 0.67896,
 11:17:21.002,e8:9e:2c:53:09:e3, 2024-07-06 21:51:28:505, 0.981, 0.169, 0.087, 1.343, 0.916, 0.732, 55.596, -79.008, 86.127, -39.075, -64.025, 21.767, 29.74, 0.30396, 0.64548, -0.17285, 0.67896,
 11:17:21.095,e8:9e:2c:53:09:e3, 2024-07-06 21:51:28:605, 0.979, 0.169, 0.087, 1.282, 0.854, 0.549, 55.574, -79.019, 86.71, -39.075, -64.025, 21.767, 29.74, 0.29312, 0.64777, -0.16275, 0.68399,
 11:17:21.180,e8:9e:2c:53:09:e3, 2024-07-06 21:51:28:705, 0.979, 0.168, 0.086, 1.343, 0.732, 0.488, 55.624, -79.019, 87.215, -39.075, -64.025, 21.767, 29.74, 0.29312, 0.64777, -0.16275, 0.68399,
 11:17:21.300,e8:9e:2c:53:09:e3, 2024-07-06 21:51:28:805, 0.981, 0.169, 0.088, 1.099, 1.16, 0, 55.673, -78.986, 87.72, -39.125, -64.008, 22.000, 29.74, 0.28424, 0.64993, -0.15353, 0.68784,
 11:17:21.375,e8:9e:2c:53:09:e3, 2024-07-06 21:51:28:905, 0.978, 0.167, 0.088, 0.366, 0.732, -0.122, 55.75, -78.942, 88.138, -39.125, -64.008, 22.000, 29.74, 0.28424, 0.64993, -0.15353, 0.68784,
 11:17:21.510,e8:9e:2c:53:09:e3, 2024-07-06 21:51:29:005, 0.975, 0.168, 0.087, 0.732, 0.732, -0.061, 55.893, -78.887, 88.451, -39.125, -64.008, 22.000, 29.74, 0.28424, 0.64993, -0.15353, 0.68784,
 11:17:21.585,e8:9e:2c:53:09:e3, 2024-07-06 21:51:29:105, 0.979, 0.173, 0.088, 1.038, 0.488, 0.488, 56.063, -78.871, 88.819, -38.942, -64.225, 21.750, 29.74, 0.28424, 0.64993, -0.15353, 0.68784,
 11:17:21.720,e8:9e:2c:53:09:e3, 2024-07-06 21:51:29:205, 0.979, 0.174, 0.087, 0.793, 0.183, 0.366, 56.305, -78.887, 89.094, -38.942, -64.225, 21.750, 29.74, 0.27463, 0.65268, -0.14331, 0.69131,
 11:17:21.781,e8:9e:2c:53:09:e3, 2024-07-06 21:51:29:305, 0.977, 0.17, 0.083, 1.099, -0.122, 0.732, 56.656, -78.942, 89.209, -38.942, -64.225, 21.750, 29.74, 0.27463, 0.65268, -0.14331, 0.69131,
 11:17:21.900,e8:9e:2c:53:09:e3, 2024-07-06 21:51:29:405, 0.982, 0.174, 0.083, 2.197, 0.793, 0.854, 56.882, -78.981, 89.561, -38.767, -64.250, 21.850, 29.74, 0.26477, 0.65549, -0.13495, 0.69418,
 11:17:21.994,e8:9e:2c:53:09:e3, 2024-07-06 21:51:29:505, 0.977, 0.168, 0.081, 2.869, 1.221, 0.671, 56.898, -79.003, 90.247, -38.767, -64.250, 21.850, 29.63, 0.26477, 0.65549, -0.13495, 0.69418,
 11:17:22.095,e8:9e:2c:53:09:e3, 2024-07-06 21:51:29:605, 0.979, 0.171, 0.085, 2.441, 0.854, 0.854, 56.959, -78.997, 90.895, -38.767, -64.250, 21.850, 29.63, 0.26477, 0.65549, -0.13495, 0.69418,
 11:17:22.186,e8:9e:2c:53:09:e3, 2024-07-06 21:51:29:705, 0.979, 0.171, 0.083, 1.587, 0.854, 0.244, 57.068, -78.997, 91.423, -38.783, -64.017, 22.275, 29.63, 0.26477, 0.65549, -0.13495, 0.69418,
 11:17:22.305,e8:9e:2c:53:09:e3, 2024-07-06 21:51:29:805, 0.979, 0.172, 0.082, 1.282, 0.549, 0.305, 57.332, -78.981, 91.741, -38.783, -64.017, 22.275, 29.63, 0.25278, 0.65817, -0.12311, 0.6983,
 11:17:22.382,e8:9e:2c:53:09:e3, 2024-07-06 21:51:29:905, 0.977, 0.174, 0.081, 0.916, 0.977, 0.183, 57.464, -78.959, 92.153, -38.783, -64.017, 22.275, 29.63, 0.25278, 0.65817, -0.12311, 0.6983,
 11:17:22.501,e8:9e:2c:53:09:e3, 2024-07-06 21:51:30:005, 0.978, 0.174, 0.084, 0.671, 0.305, 0.244, 57.596, -78.942, 92.527, -38.683, -64.175, 22.200, 29.63, 0.24429, 0.66028, -0.11435, 0.70084,
 11:17:22.590,e8:9e:2c:53:09:e3, 2024-07-06 21:51:30:105, 0.981, 0.177, 0.082, 0.366, 0, 0.305, 57.991, -78.959, 92.593, -38.683, -64.175, 22.200, 29.63, 0.24429, 0.66028, -0.11435, 0.70084,
 11:17:22.710,e8:9e:2c:53:09:e3, 2024-07-06 21:51:30:205, 0.978, 0.175, 0.075, 1.343, 0.183, 0.244, 58.398, -78.986, 92.681, -38.683, -64.175, 22.200, 29.63, 0.24429, 0.66028, -0.11435, 0.70084,
 11:17:22.785,e8:9e:2c:53:09:e3, 2024-07-06 21:51:30:305, 0.978, 0.174, 0.079, 1.892, 0.488, 0.854, 58.585, -78.997, 93.071, -38.567, -64.117, 22.067, 29.63, 0.24429, 0.66028, -0.11435, 0.70084,
 11:17:22.905,e8:9e:2c:53:09:e3, 2024-07-06 21:51:30:405, 0.979, 0.174, 0.079, 1.77, 0.732, 0.854, 58.651, -79.036, 93.615, -38.567, -64.117, 22.067, 29.63, 0.23364, 0.66293, -0.10471, 0.70346,
 11:17:23.056,e8:9e:2c:53:09:e3, 2024-07-06 21:51:30:505, 0.978, 0.175, 0.075, 1.648, 0.854, 1.038, 58.651, -79.058, 94.224, -38.567, -64.117, 22.067, 29.63, 0.23364, 0.66293, -0.10471, 0.70346,
 11:17:23.100,e8:9e:2c:53:09:e3, 2024-07-06 21:51:30:605, 0.976, 0.173, 0.076, 2.197, 0.183, 0.977, 58.683, -79.107, 94.807, -38.700, -64.067, 22.483, 29.63, 0.23364, 0.66293, -0.10471, 0.70346,
 11:17:23.190,e8:9e:2c:53:09:e3, 2024-07-06 21:51:30:705, 0.979, 0.176, 0.079, 1.587, -0.305, 0.488, 59.041, -79.167, 95.015, -38.700, -64.067, 22.483, 29.63, 0.22141, 0.66534, -0.09448, 0.70657,
 11:17:23.311,e8:9e:2c:53:09:e3, 2024-07-06 21:51:30:805, 0.98, 0.176, 0.074, 1.404, -0.61, 0.427, 59.689, -79.217, 94.883, -38.700, -64.067, 22.483, 29.63, 0.22141, 0.66534, -0.09448, 0.70657,
 11:17:23.385,e8:9e:2c:53:09:e3, 2024-07-06 21:51:30:905, 0.979, 0.172, 0.069, 2.38, -0.488, 0.671, 60.381, -79.294, 94.752, -38.442, -64.150, 22.708, 29.63, 0.22141, 0.66534, -0.09448, 0.70657,
 11:17:23.505,e8:9e:2c:53:09:e3, 2024-07-06 21:51:31:005, 0.976, 0.174, 0.068, 3.296, -1.221, 1.099, 61.062, -79.376, 94.708, -38.442, -64.150, 22.708, 29.63, 0.2099, 0.66962, -0.08472, 0.70731,
 11:17:23.596,e8:9e:2c:53:09:e3, 2024-07-06 21:51:31:105, 0.969, 0.168, 0.076, 3.845, -4.7, 2.93, 62.446, -79.651, 93.955, -38.442, -64.150, 22.708, 29.63, 0.2099, 0.66962, -0.08472, 0.70731,
 11:17:23.730,e8:9e:2c:53:09:e3, 2024-07-06 21:51:31:205, 0.969, 0.163, 0.051, 5.371, -9.46, 3.54, 66.204, -80.206, 90.873, -37.933, -63.333, 24.275, 29.63, 0.1944, 0.68231, -0.08084, 0.70001,
 11:17:23.792,e8:9e:2c:53:09:e3, 2024-07-06 21:51:31:305, 0.988, 0.162, 0.034, 10.62, -14.343, 5.92, 72.537, -80.986, 85.21, -37.933, -63.333, 24.275, 29.63, 0.1944, 0.68231, -0.08084, 0.70001,
 11:17:23.910,e8:9e:2c:53:09:e3, 2024-07-06 21:51:31:405, 0.986, 0.155, -0.001, 12.146, -22.156, 13.855, 84.891, -82.244, 73.85, -37.933, -63.333, 24.275, 29.63, 0.1944, 0.68231, -0.08084, 0.70001,
 11:17:24.001,e8:9e:2c:53:09:e3, 2024-07-06 21:51:31:505, 0.987, 0.112, -0.059, 9.033, -23.071, 19.592, 104.733, -83.683, 54.591, -36.625, -59.600, 30.400, 29.63, 0.1944, 0.68231, -0.08084, 0.70001,
 11:17:24.119,e8:9e:2c:53:09:e3, 2024-07-06 21:51:31:605, 0.982, 0.096, -0.093, 8.24, -23.56, 23.987, 135.044, -84.353, 24.939, -36.625, -59.600, 30.400, 29.63, 0.14359, 0.72339, -0.10211, 0.66751,
 11:17:24.195,e8:9e:2c:53:09:e3, 2024-07-06 21:51:31:705, 0.98, 0.031, -0.154, 4.517, -17.517, 18.494, 162.263, -83.633, -1.807, -36.625, -59.600, 30.400, 29.63, 0.14359, 0.72339, -0.10211, 0.66751,
 11:17:24.345,e8:9e:2c:53:09:e3, 2024-07-06 21:51:31:805, 0.976, -0.002, -0.171, -1.16, -7.874, 9.644, 174.419, -82.705, -13.568, -35.817, -54.808, 35.350, 29.63, 0.10675, 0.74365, -0.11804, 0.64926,
 11:17:24.406,e8:9e:2c:53:09:e3, 2024-07-06 21:51:31:905, 0.972, 0.001, -0.175, 3.967, -2.808, 2.991, 178.253, -82.189, -16.271, -35.817, -54.808, 35.350, 29.63, 0.10675, 0.74365, -0.11804, 0.64926,
 11:17:24.525,e8:9e:2c:53:09:e3, 2024-07-06 21:51:32:005, 0.972, 0.001, -0.181, 0.244, -2.014, 2.563, -179.791, -81.832, -17.122, -35.817, -54.808, 35.350, 29.63, 0.10675, 0.74365, -0.11804, 0.64926,
 11:17:24.601,e8:9e:2c:53:09:e3, 2024-07-06 21:51:32:105, 0.97, 0.012, -0.166, -2.38, -0.854, 2.93, -179.088, -81.628, -17.095, -35.400, -54.142, 36.183, 29.63, 0.10675, 0.74365, -0.11804, 0.64926,
 11:17:24.719,e8:9e:2c:53:09:e3, 2024-07-06 21:51:32:205, 0.97, 0.008, -0.18, 0.732, -3.967, 7.996, -175.518, -81.216, -19.984, -35.400, -54.142, 36.183, 29.63, 0.08322, 0.75159, -0.10666, 0.64554,
 11:17:24.795,e8:9e:2c:53:09:e3, 2024-07-06 21:51:32:305, 0.966, -0.033, -0.205, -1.709, -0.854, 3.113, -171.837, -80.744, -23.231, -35.400, -54.142, 36.183, 29.63, 0.08322, 0.75159, -0.10666, 0.64554,
 11:17:24.916,e8:9e:2c:53:09:e3, 2024-07-06 21:51:32:405, 0.967, -0.013, -0.191, -2.625, 2.93, -2.38, -172.365, -80.76, -22.319, -35.500, -54.042, 36.150, 29.63, 0.08322, 0.75159, -0.10666, 0.64554,
 11:17:25.020,e8:9e:2c:53:09:e3, 2024-07-06 21:51:32:505, 0.97, -0.001, -0.184, -0.488, 1.709, -0.427, -173.743, -80.92, -20.385, -35.500, -54.042, 36.150, 29.63, 0.07379, 0.75394, -0.09958, 0.64505,
 11:17:25.126,e8:9e:2c:53:09:e3, 2024-07-06 21:51:32:605, 0.968, -0.007, -0.19, 1.038, 0.61, 0.671, -173.826, -80.925, -19.764, -35.500, -54.042, 36.150, 29.63, 0.07379, 0.75394, -0.09958, 0.64505,
 11:17:25.215,e8:9e:2c:53:09:e3, 2024-07-06 21:51:32:705, 0.969, -0.01, -0.188, 1.77, 0.977, 0.488, -173.452, -80.887, -19.567, -35.467, -54.533, 35.533, 29.63, 0.07379, 0.75394, -0.09958, 0.64505,
 11:17:25.335,e8:9e:2c:53:09:e3, 2024-07-06 21:51:32:805, 0.969, -0.006, -0.184, 2.197, 1.221, 0.305, -173.342, -80.898, -19.05, -35.467, -54.533, 35.533, 29.63, 0.06308, 0.75546, -0.08801, 0.64612,
 11:17:25.425,e8:9e:2c:53:09:e3, 2024-07-06 21:51:32:905, 0.967, -0.007, -0.184, 2.441, -0.244, 1.648, -172.853, -80.832, -18.951, -35.467, -54.533, 35.533, 29.63, 0.06308, 0.75546, -0.08801, 0.64612,
 11:17:25.575,e8:9e:2c:53:09:e3, 2024-07-06 21:51:33:005, 0.97, -0.01, -0.191, 1.465, 0, 1.709, -171.964, -80.689, -19.38, -35.533, -54.200, 36.067, 29.63, 0.0538, 0.75751, -0.08173, 0.64536,
 11:17:25.621,e8:9e:2c:53:09:e3, 2024-07-06 21:51:33:105, 0.97, -0.014, -0.191, 0.732, 0.671, 0.977, -171.48, -80.612, -19.501, -35.533, -54.200, 36.067, 29.63, 0.0538, 0.75751, -0.08173, 0.64536,
 11:17:25.725,e8:9e:2c:53:09:e3, 2024-07-06 21:51:33:205, 0.969, -0.016, -0.19, 1.587, 0.916, 0.977, -171.063, -80.579, -19.605, -35.533, -54.200, 36.067, 29.63, 0.0538, 0.75751, -0.08173, 0.64536,
 11:17:25.831,e8:9e:2c:53:09:e3, 2024-07-06 21:51:33:305, 0.97, -0.014, -0.189, 1.221, 1.465, 0.488, -170.771, -80.59, -19.567, -35.533, -54.200, 36.067, 29.63, 0.0538, 0.75751, -0.08173, 0.64536,
 11:17:25.966,e8:9e:2c:53:09:e3, 2024-07-06 21:51:33:405, 0.969, -0.014, -0.189, 1.038, 1.587, 0.793, -170.535, -80.64, -19.55, -35.483, -54.250, 36.142, 29.63, 0.04688, 0.75769, -0.07602, 0.64639,
 11:17:26.012,e8:9e:2c:53:09:e3, 2024-07-06 21:51:33:505, 0.968, -0.012, -0.188, 0.549, 1.709, 1.282, -170.09, -80.684, -19.847, -35.483, -54.250, 36.142, 29.63, 0.04688, 0.75769, -0.07602, 0.64639,
 11:17:26.130,e8:9e:2c:53:09:e3, 2024-07-06 21:51:33:605, 0.968, -0.015, -0.185, 0.61, 1.709, 0.793, -169.645, -80.744, -20.187, -35.483, -54.250, 36.142, 29.63, 0.04688, 0.75769, -0.07602, 0.64639,
 11:17:26.206,e8:9e:2c:53:09:e3, 2024-07-06 21:51:33:705, 0.969, -0.015, -0.185, 0.488, 1.16, 0.977, -169.365, -80.76, -20.391, -35.958, -54.250, 35.658, 29.63, 0.04688, 0.75769, -0.07602, 0.64639,
 11:17:26.325,e8:9e:2c:53:09:e3, 2024-07-06 21:51:33:805, 0.968, -0.013, -0.182, 1.587, 0.549, 0.732, -169.085, -80.728, -20.533, -35.958, -54.250, 35.658, 29.63, 0.04361, 0.75726, -0.07458, 0.64728,
 11:17:26.415,e8:9e:2c:53:09:e3, 2024-07-06 21:51:33:905, 0.968, -0.014, -0.184, 1.953, 0.061, 1.282, -168.712, -80.645, -20.731, -35.958, -54.250, 35.658, 29.63, 0.04361, 0.75726, -0.07458, 0.64728,
 11:17:26.551,e8:9e:2c:53:09:e3, 2024-07-06 21:51:34:005, 0.969, -0.016, -0.189, 2.014, -0.244, 0.977, -168.333, -80.519, -20.918, -35.767, -54.133, 35.758, 29.63, 0.03949, 0.75894, -0.07306, 0.64578,
 11:17:26.626,e8:9e:2c:53:09:e3, 2024-07-06 21:51:34:105, 0.968, -0.016, -0.193, 1.404, -0.244, 1.221, -167.981, -80.392, -21.16, -35.767, -54.133, 35.758, 29.63, 0.03949, 0.75894, -0.07306, 0.64578,
 11:17:26.745,e8:9e:2c:53:09:e3, 2024-07-06 21:51:34:205, 0.967, -0.023, -0.191, 0, -0.977, 2.075, -167.476, -80.228, -21.747, -35.767, -54.133, 35.758, 29.63, 0.03949, 0.75894, -0.07306, 0.64578,
 11:17:26.820,e8:9e:2c:53:09:e3, 2024-07-06 21:51:34:305, 0.968, -0.024, -0.196, 0.732, -0.916, 2.014, -166.844, -80.002, -22.473, -35.542, -54.008, 36.158, 29.63, 0.03949, 0.75894, -0.07306, 0.64578,
 11:17:26.940,e8:9e:2c:53:09:e3, 2024-07-06 21:51:34:405, 0.967, -0.021, -0.2, 0.61, -0.488, 1.404, -166.492, -79.821, -22.868, -35.542, -54.008, 36.158, 29.63, 0.0379, 0.7616, -0.07718, 0.64224,
 11:17:27.016,e8:9e:2c:53:09:e3, 2024-07-06 21:51:34:505, 0.966, -0.028, -0.198, 1.282, -0.854, 2.319, -165.959, -79.634, -23.516, -35.542, -54.008, 36.158, 29.63, 0.0379, 0.7616, -0.07718, 0.64224,
 11:17:27.136,e8:9e:2c:53:09:e3, 2024-07-06 21:51:34:605, 0.966, -0.029, -0.207, 1.953, -0.061, 0.793, -165.46, -79.442, -24.066, -35.475, -53.792, 36.458, 29.63, 0.0379, 0.7616, -0.07718, 0.64224,
 11:17:27.225,e8:9e:2c:53:09:e3, 2024-07-06 21:51:34:705, 0.964, -0.026, -0.205, 2.197, 1.648, -0.977, -165.69, -79.448, -23.73, -35.475, -53.792, 36.458, 29.63, 0.03665, 0.76318, -0.07916, 0.6402,
 11:17:27.360,e8:9e:2c:53:09:e3, 2024-07-06 21:51:34:805, 0.965, -0.022, -0.204, 1.648, 2.258, -0.122, -166.053, -79.552, -23.313, -35.475, -53.792, 36.458, 29.63, 0.03665, 0.76318, -0.07916, 0.6402,
 11:17:27.420,e8:9e:2c:53:09:e3, 2024-07-06 21:51:34:905, 0.966, -0.023, -0.199, 1.709, 2.38, 0.549, -165.938, -79.678, -23.5, -35.417, -53.900, 36.175, 29.63, 0.03665, 0.76318, -0.07916, 0.6402,
 11:17:27.541,e8:9e:2c:53:09:e3, 2024-07-06 21:51:35:005, 0.968, -0.025, -0.197, 3.296, 2.014, 0.488, -165.569, -79.794, -23.873, -35.417, -53.900, 36.175, 29.63, 0.03745, 0.76132, -0.07867, 0.6424,
 11:17:27.630,e8:9e:2c:53:09:e3, 2024-07-06 21:51:35:105, 0.965, -0.022, -0.196, 3.601, 2.197, 0.305, -165.212, -79.893, -24.115, -35.417, -53.900, 36.175, 29.63, 0.03745, 0.76132, -0.07867, 0.6424,
 11:17:27.750,e8:9e:2c:53:09:e3, 2024-07-06 21:51:35:205, 0.967, -0.019, -0.19, 1.709, 1.343, 1.465, -164.866, -79.969, -24.478, -35.733, -53.417, 36.692, 29.63, 0.03674, 0.75992, -0.08005, 0.64395,
 11:17:27.825,e8:9e:2c:53:09:e3, 2024-07-06 21:51:35:305, 0.968, -0.032, -0.196, 0.854, 1.404, 1.77, -164.037, -79.953, -25.543, -35.733, -53.417, 36.692, 29.63, 0.03674, 0.75992, -0.08005, 0.64395,
 11:17:27.946,e8:9e:2c:53:09:e3, 2024-07-06 21:51:35:405, 0.967, -0.026, -0.195, 2.075, 1.648, 0.61, -163.636, -79.997, -26.054, -35.733, -53.417, 36.692, 29.63, 0.03674, 0.75992, -0.08005, 0.64395,
 11:17:28.020,e8:9e:2c:53:09:e3, 2024-07-06 21:51:35:505, 0.966, -0.029, -0.188, 1.648, 0.916, 1.343, -163.218, -80.019, -26.62, -36.058, -53.125, 36.342, 29.63, 0.03674, 0.75992, -0.08005, 0.64395,
 11:17:28.155,e8:9e:2c:53:09:e3, 2024-07-06 21:51:35:605, 0.967, -0.032, -0.191, 1.953, 0.488, 1.343, -162.779, -79.964, -27.202, -36.058, -53.125, 36.342, 29.63, 0.03787, 0.75894, -0.08441, 0.64447,
 11:17:28.229,e8:9e:2c:53:09:e3, 2024-07-06 21:51:35:705, 0.968, -0.035, -0.191, 1.099, 0.61, 0.488, -162.576, -79.92, -27.559, -36.058, -53.125, 36.342, 29.63, 0.03787, 0.75894, -0.08441, 0.64447,
 11:17:28.368,e8:9e:2c:53:09:e3, 2024-07-06 21:51:35:805, 0.967, -0.03, -0.19, 0.916, 0.488, 0.427, -162.691, -79.887, -27.631, -35.933, -53.008, 36.525, 29.63, 0.04041, 0.75919, -0.08829, 0.64349,
 11:17:28.425,e8:9e:2c:53:09:e3, 2024-07-06 21:51:35:905, 0.967, -0.03, -0.194, 0.916, 0.183, 0.793, -162.746, -79.816, -27.806, -35.933, -53.008, 36.525, 29.63, 0.04041, 0.75919, -0.08829, 0.64349,
 11:17:28.545,e8:9e:2c:53:09:e3, 2024-07-06 21:51:36:005, 0.966, -0.03, -0.196, 0.671, 0.977, -0.183, -162.905, -79.788, -27.872, -35.933, -53.008, 36.525, 29.63, 0.04041, 0.75919, -0.08829, 0.64349,
 11:17:28.620,e8:9e:2c:53:09:e3, 2024-07-06 21:51:36:105, 0.967, -0.027, -0.192, 0.061, 1.343, -0.061, -163.328, -79.849, -27.817, -35.875, -53.275, 36.217, 29.63, 0.04041, 0.75919, -0.08829, 0.64349,
 11:17:28.755,e8:9e:2c:53:09:e3, 2024-07-06 21:51:36:205, 0.966, -0.027, -0.194, 1.343, 0.671, 0.305, -163.526, -79.86, -27.878, -35.875, -53.275, 36.217, 29.63, 0.04636, 0.75867, -0.09351, 0.64297,
 11:17:28.829,e8:9e:2c:53:09:e3, 2024-07-06 21:51:36:305, 0.967, -0.028, -0.191, 1.831, 0.305, 0.244, -163.652, -79.832, -27.933, -35.875, -53.275, 36.217, 29.63, 0.04636, 0.75867, -0.09351, 0.64297,
 11:17:28.951,e8:9e:2c:53:09:e3, 2024-07-06 21:51:36:405, 0.966, -0.026, -0.196, 2.136, -0.122, 0.671, -163.713, -79.755, -28.026, -35.750, -53.425, 36.433, 29.63, 0.04919, 0.75919, -0.09717, 0.6416,
 11:17:29.056,e8:9e:2c:53:09:e3, 2024-07-06 21:51:36:505, 0.966, -0.029, -0.197, 1.16, 0.305, 0.305, -163.801, -79.678, -28.174, -35.750, -53.425, 36.433, 29.63, 0.04919, 0.75919, -0.09717, 0.6416,
 11:17:29.146,e8:9e:2c:53:09:e3, 2024-07-06 21:51:36:605, 0.967, -0.025, -0.197, 2.075, 0.244, 0.183, -164.004, -79.629, -28.163, -35.558, -53.275, 36.550, 29.63, 0.04919, 0.75919, -0.09717, 0.6416,
 11:17:29.251,e8:9e:2c:53:09:e3, 2024-07-06 21:51:36:705, 0.967, -0.019, -0.204, 1.953, 0.427, 0.305, -164.246, -79.568, -28.026, -35.558, -53.275, 36.550, 29.63, 0.05148, 0.75977, -0.09946, 0.64041,
 11:17:29.370,e8:9e:2c:53:09:e3, 2024-07-06 21:51:36:805, 0.967, -0.027, -0.2, 1.892, 0.305, 0.854, -164.125, -79.519, -28.394, -35.558, -53.275, 36.550, 29.63, 0.05148, 0.75977, -0.09946, 0.64041,
 11:17:29.432,e8:9e:2c:53:09:e3, 2024-07-06 21:51:36:905, 0.966, -0.029, -0.202, 1.343, 0.977, 0.244, -164.108, -79.492, -28.685, -35.458, -53.333, 36.758, 29.63, 0.05148, 0.75977, -0.09946, 0.64041,
 11:17:29.551,e8:9e:2c:53:09:e3, 2024-07-06 21:51:37:005, 0.965, -0.026, -0.198, 0.977, 0.854, 0.244, -164.273, -79.508, -28.834, -35.458, -53.333, 36.758, 29.63, 0.05588, 0.75931, -0.10489, 0.63971,
 11:17:29.670,e8:9e:2c:53:09:e3, 2024-07-06 21:51:37:105, 0.965, -0.025, -0.199, 0.916, 0.854, 0.732, -164.29, -79.503, -29.125, -35.458, -53.333, 36.758, 29.63, 0.05588, 0.75931, -0.10489, 0.63971,
 11:17:29.760,e8:9e:2c:53:09:e3, 2024-07-06 21:51:37:205, 0.965, -0.025, -0.199, 1.343, 0.671, 1.404, -164.064, -79.47, -29.652, -35.367, -53.100, 36.858, 29.63, 0.05588, 0.75931, -0.10489, 0.63971,
 11:17:29.850,e8:9e:2c:53:09:e3, 2024-07-06 21:51:37:305, 0.966, -0.023, -0.2, 1.587, 0.366, 1.953, -163.559, -79.404, -30.476, -35.367, -53.100, 36.858, 29.63, 0.06015, 0.75864, -0.11246, 0.63882,
 11:17:29.955,e8:9e:2c:53:09:e3, 2024-07-06 21:51:37:405, 0.966, -0.034, -0.201, 0.244, 0.61, 2.075, -162.889, -79.316, -31.558, -35.367, -53.100, 36.858, 29.63, 0.06015, 0.75864, -0.11246, 0.63882,
 11:17:30.030,e8:9e:2c:53:09:e3, 2024-07-06 21:51:37:505, 0.966, -0.035, -0.201, -0.732, 2.319, -0.427, -162.9, -79.376, -32.036, -35.367, -53.100, 36.858, 29.63, 0.06015, 0.75864, -0.11246, 0.63882,
 11:17:30.165,e8:9e:2c:53:09:e3, 2024-07-06 21:51:37:605, 0.966, -0.027, -0.193, 0.427, 2.075, -0.183, -163.323, -79.536, -32.003, -35.675, -53.267, 36.783, 29.63, 0.06784, 0.75641, -0.12085, 0.63916,
 11:17:30.240,e8:9e:2c:53:09:e3, 2024-07-06 21:51:37:705, 0.967, -0.025, -0.196, 1.892, 1.038, 0.61, -163.367, -79.579, -32.217, -35.675, -53.267, 36.783, 29.63, 0.06784, 0.75641, -0.12085, 0.63916,
 11:17:30.376,e8:9e:2c:53:09:e3, 2024-07-06 21:51:37:805, 0.967, -0.029, -0.197, 2.38, 1.099, 0.427, -163.229, -79.59, -32.558, -35.767, -53.258, 36.575, 29.63, 0.07104, 0.75555, -0.12469, 0.6391,
 11:17:30.465,e8:9e:2c:53:09:e3, 2024-07-06 21:51:37:905, 0.966, -0.028, -0.199, 1.77, 0.732, 0.244, -163.273, -79.59, -32.745, -35.767, -53.258, 36.575, 29.63, 0.07104, 0.75555, -0.12469, 0.6391,
 11:17:30.572,e8:9e:2c:53:09:e3, 2024-07-06 21:51:38:005, 0.966, -0.029, -0.196, 0.549, 1.282, -0.488, -163.597, -79.612, -32.734, -35.633, -53.525, 36.425, 29.63, 0.07104, 0.75555, -0.12469, 0.6391,
 11:17:30.645,e8:9e:2c:53:09:e3, 2024-07-06 21:51:38:105, 0.967, -0.025, -0.195, -0.122, 1.648, -1.099, -164.246, -79.7, -32.459, -35.633, -53.525, 36.425, 29.63, 0.07693, 0.75458, -0.12848, 0.63882,
 11:17:30.766,e8:9e:2c:53:09:e3, 2024-07-06 21:51:38:205, 0.966, -0.02, -0.192, -0.916, 1.953, -1.404, -165.284, -79.838, -31.915, -35.633, -53.525, 36.425, 29.63, 0.07693, 0.75458, -0.12848, 0.63882,
 11:17:30.842,e8:9e:2c:53:09:e3, 2024-07-06 21:51:38:305, 0.968, -0.012, -0.189, 0.488, 1.587, -0.488, -166.179, -79.953, -31.415, -35.408, -54.050, 36.092, 29.63, 0.07693, 0.75458, -0.12848, 0.63882,
 11:17:30.960,e8:9e:2c:53:09:e3, 2024-07-06 21:51:38:405, 0.965, -0.013, -0.19, 1.282, 0.61, 0.854, -166.415, -79.975, -31.558, -35.408, -54.050, 36.092, 29.63, 0.08633, 0.75275, -0.13373, 0.6387,
 11:17:31.051,e8:9e:2c:53:09:e3, 2024-07-06 21:51:38:505, 0.965, -0.015, -0.193, 1.709, 0.366, 1.709, -166.058, -79.915, -32.25, -35.408, -54.050, 36.092, 29.63, 0.08633, 0.75275, -0.13373, 0.6387,
 11:17:31.170,e8:9e:2c:53:09:e3, 2024-07-06 21:51:38:605, 0.967, -0.017, -0.19, 3.052, -0.061, 2.441, -165.295, -79.816, -33.322, -35.558, -54.025, 36.067, 29.63, 0.0881, 0.75235, -0.14148, 0.63724,
 11:17:31.245,e8:9e:2c:53:09:e3, 2024-07-06 21:51:38:705, 0.967, -0.026, -0.198, 3.967, -0.305, 3.052, -164.086, -79.651, -34.717, -35.558, -54.025, 36.067, 29.63, 0.0881, 0.75235, -0.14148, 0.63724,
 11:17:31.366,e8:9e:2c:53:09:e3, 2024-07-06 21:51:38:805, 0.969, -0.032, -0.2, 2.625, 0.793, 1.099, -163.229, -79.557, -35.75, -35.558, -54.025, 36.067, 29.63, 0.0881, 0.75235, -0.14148, 0.63724,
 11:17:31.440,e8:9e:2c:53:09:e3, 2024-07-06 21:51:38:905, 0.966, -0.025, -0.202, -0.122, 1.587, 0.61, -163.07, -79.574, -36.194, -35.733, -53.217, 36.508, 29.63, 0.0881, 0.75235, -0.14148, 0.63724,
 11:17:31.575,e8:9e:2c:53:09:e3, 2024-07-06 21:51:39:005, 0.966, -0.027, -0.195, 2.014, 1.16, 0.305, -163.054, -79.618, -36.562, -35.733, -53.217, 36.508, 29.63, 0.09113, 0.75101, -0.14868, 0.63675,
 11:17:31.651,e8:9e:2c:53:09:e3, 2024-07-06 21:51:39:105, 0.968, -0.03, -0.196, 2.869, 0.977, 0.305, -163.004, -79.634, -36.815, -35.733, -53.217, 36.508, 29.63, 0.09113, 0.75101, -0.14868, 0.63675,
 11:17:31.786,e8:9e:2c:53:09:e3, 2024-07-06 21:51:39:205, 0.966, -0.025, -0.195, 1.16, 1.16, 0.244, -163.098, -79.651, -36.953, -35.708, -53.150, 36.608, 29.63, 0.0954, 0.74991, -0.15356, 0.63629,
 11:17:31.845,e8:9e:2c:53:09:e3, 2024-07-06 21:51:39:305, 0.967, -0.028, -0.196, 1.526, 0.61, 0.854, -163.048, -79.634, -37.375, -35.708, -53.150, 36.608, 29.63, 0.0954, 0.74991, -0.15356, 0.63629,
 11:17:31.965,e8:9e:2c:53:09:e3, 2024-07-06 21:51:39:405, 0.966, -0.028, -0.198, 1.404, 1.099, 0, -163.163, -79.634, -37.562, -35.708, -53.150, 36.608, 29.63, 0.0954, 0.74991, -0.15356, 0.63629,
 11:17:32.055,e8:9e:2c:53:09:e3, 2024-07-06 21:51:39:505, 0.967, -0.023, -0.194, -0.244, 1.709, -0.549, -163.652, -79.711, -37.452, -35.533, -53.300, 36.542, 29.63, 0.0954, 0.74991, -0.15356, 0.63629,
 11:17:32.175,e8:9e:2c:53:09:e3, 2024-07-06 21:51:39:605, 0.967, -0.019, -0.188, -2.258, 2.136, -0.916, -164.52, -79.838, -37.216, -35.533, -53.300, 36.542, 29.63, 0.10458, 0.74786, -0.16034, 0.63556,
 11:17:32.265,e8:9e:2c:53:09:e3, 2024-07-06 21:51:39:705, 0.968, -0.016, -0.191, 1.343, 1.587, -0.671, -165.295, -79.958, -36.843, -35.533, -53.300, 36.542, 29.63, 0.10458, 0.74786, -0.16034, 0.63556,
 11:17:32.370,e8:9e:2c:53:09:e3, 2024-07-06 21:51:39:805, 0.969, -0.014, -0.194, -0.488, 2.014, -1.099, -166.025, -80.057, -36.469, -35.367, -54.158, 36.033, 29.63, 0.11383, 0.74561, -0.16476, 0.6355,
 11:17:32.467,e8:9e:2c:53:09:e3, 2024-07-06 21:51:39:905, 0.968, -0.015, -0.189, 0.793, 1.953, -0.732, -166.74, -80.184, -36.156, -35.367, -54.158, 36.033, 29.63, 0.11383, 0.74561, -0.16476, 0.6355,
 11:17:32.580,e8:9e:2c:53:09:e3, 2024-07-06 21:51:40:005, 0.968, -0.01, -0.186, 0.549, 1.77, -0.061, -167.316, -80.305, -35.975, -35.367, -54.158, 36.033, 29.63, 0.11383, 0.74561, -0.16476, 0.6355,
 11:17:32.655,e8:9e:2c:53:09:e3, 2024-07-06 21:51:40:105, 0.969, -0.009, -0.184, 1.892, 1.16, 0.793, -167.399, -80.365, -36.255, -35.592, -54.367, 36.000, 29.63, 0.11383, 0.74561, -0.16476, 0.6355,
 11:17:32.776,e8:9e:2c:53:09:e3, 2024-07-06 21:51:40:205, 0.969, -0.01, -0.185, 1.709, 0.671, 1.465, -167.086, -80.359, -36.914, -35.592, -54.367, 36.000, 29.63, 0.12125, 0.74313, -0.17108, 0.63535,
 11:17:32.865,e8:9e:2c:53:09:e3, 2024-07-06 21:51:40:305, 0.969, -0.014, -0.186, 2.563, 0.366, 1.648, -166.509, -80.305, -37.837, -35.592, -54.367, 36.000, 29.63, 0.12125, 0.74313, -0.17108, 0.63535,
 11:17:32.986,e8:9e:2c:53:09:e3, 2024-07-06 21:51:40:405, 0.969, -0.012, -0.19, 3.113, 0.427, 1.648, -165.899, -80.239, -38.677, -35.775, -54.000, 36.192, 29.63, 0.12363, 0.74197, -0.17865, 0.63419,
 11:17:33.060,e8:9e:2c:53:09:e3, 2024-07-06 21:51:40:505, 0.968, -0.02, -0.188, 2.93, 0.427, 1.587, -165.262, -80.173, -39.545, -35.775, -54.000, 36.192, 29.63, 0.12363, 0.74197, -0.17865, 0.63419,
 11:17:33.180,e8:9e:2c:53:09:e3, 2024-07-06 21:51:40:605, 0.968, -0.019, -0.188, 1.465, 0.732, 1.465, -164.767, -80.118, -40.347, -35.775, -54.000, 36.192, 29.63, 0.12363, 0.74197, -0.17865, 0.63419,
 11:17:33.256,e8:9e:2c:53:09:e3, 2024-07-06 21:51:40:705, 0.97, -0.021, -0.189, 1.526, 0.671, 1.221, -164.372, -80.079, -41.105, -35.900, -53.583, 36.533, 29.63, 0.12363, 0.74197, -0.17865, 0.63419,
 11:17:33.378,e8:9e:2c:53:09:e3, 2024-07-06 21:51:40:805, 0.968, -0.022, -0.191, 0.244, 0.977, 0.793, -164.185, -80.057, -41.71, -35.900, -53.583, 36.533, 29.63, 0.12839, 0.74017, -0.18732, 0.63281,
 11:17:33.480,e8:9e:2c:53:09:e3, 2024-07-06 21:51:40:905, 0.969, -0.022, -0.189, 0.732, 0.977, 0.671, -164.163, -80.068, -42.171, -35.900, -53.583, 36.533, 29.63, 0.12839, 0.74017, -0.18732, 0.63281,
 11:17:33.586,e8:9e:2c:53:09:e3, 2024-07-06 21:51:41:005, 0.969, -0.019, -0.19, 1.099, 1.221, 0.183, -164.273, -80.085, -42.424, -36.008, -53.750, 36.225, 29.63, 0.13419, 0.73834, -0.1937, 0.63181,
 11:17:33.661,e8:9e:2c:53:09:e3, 2024-07-06 21:51:41:105, 0.969, -0.02, -0.188, 1.953, 0.732, 0.916, -164.207, -80.09, -42.808, -36.008, -53.750, 36.225, 29.63, 0.13419, 0.73834, -0.1937, 0.63181,
 11:17:33.780,e8:9e:2c:53:09:e3, 2024-07-06 21:51:41:205, 0.969, -0.023, -0.188, 1.282, 0.793, 0.793, -163.998, -80.074, -43.325, -36.008, -53.750, 36.225, 29.63, 0.13419, 0.73834, -0.1937, 0.63181,
 11:17:33.870,e8:9e:2c:53:09:e3, 2024-07-06 21:51:41:305, 0.97, -0.021, -0.189, 1.038, 0.916, 0.793, -163.9, -80.063, -43.764, -36.075, -53.658, 36.225, 29.63, 0.13419, 0.73834, -0.1937, 0.63181,
 11:17:33.990,e8:9e:2c:53:09:e3, 2024-07-06 21:51:41:405, 0.97, -0.024, -0.189, 1.099, 1.099, 0.732, -163.779, -80.063, -44.264, -36.075, -53.658, 36.225, 29.63, 0.14035, 0.73611, -0.20206, 0.63049,
 11:17:34.065,e8:9e:2c:53:09:e3, 2024-07-06 21:51:41:505, 0.969, -0.024, -0.186, 0.977, 1.343, 0.488, -163.762, -80.107, -44.654, -36.075, -53.658, 36.225, 29.63, 0.14035, 0.73611, -0.20206, 0.63049,
 11:17:34.185,e8:9e:2c:53:09:e3, 2024-07-06 21:51:41:605, 0.975, -0.021, -0.187, 0.854, 1.587, 0.305, -163.784, -80.162, -45.005, -35.925, -53.525, 36.333, 29.63, 0.14618, 0.73383, -0.20792, 0.62991,
 11:17:34.275,e8:9e:2c:53:09:e3, 2024-07-06 21:51:41:705, 0.968, -0.042, -0.189, -1.953, 0.977, 0.549, -163.894, -80.189, -45.352, -35.925, -53.525, 36.333, 29.63, 0.14618, 0.73383, -0.20792, 0.62991,
 11:17:34.395,e8:9e:2c:53:09:e3, 2024-07-06 21:51:41:805, 0.963, -0.017, -0.186, -1.099, 0.061, 1.282, -164.015, -80.162, -45.857, -35.925, -53.525, 36.333, 29.63, 0.14618, 0.73383, -0.20792, 0.62991,
 11:17:34.470,e8:9e:2c:53:09:e3, 2024-07-06 21:51:41:905, 0.962, -0.019, -0.184, 0.305, -1.221, 2.502, -163.68, -80.013, -46.89, -36.067, -54.008, 35.567, 29.63, 0.14618, 0.73383, -0.20792, 0.62991,
 11:17:34.605,e8:9e:2c:53:09:e3, 2024-07-06 21:51:42:005, 0.965, -0.024, -0.186, 2.563, -4.028, 6.042, -162.521, -79.612, -48.494, -36.067, -54.008, 35.567, 29.63, 0.15359, 0.73215, -0.22247, 0.62512,
 11:17:34.665,e8:9e:2c:53:09:e3, 2024-07-06 21:51:42:105, 0.971, -0.046, -0.213, 2.747, -4.7, 4.944, -160.62, -78.931, -50.751, -36.067, -54.008, 35.567, 29.63, 0.15359, 0.73215, -0.22247, 0.62512,
 11:17:34.785,e8:9e:2c:53:09:e3, 2024-07-06 21:51:42:205, 0.963, -0.049, -0.217, 7.141, -3.723, -3.662, -161.109, -78.481, -50.262, -35.600, -52.967, 37.150, 29.63, 0.1507, 0.73691, -0.23001, 0.61746,
 11:17:34.875,e8:9e:2c:53:09:e3, 2024-07-06 21:51:42:305, 0.965, -0.023, -0.229, -0.793, -0.305, 0.732, -162.285, -78.322, -49.296, -35.600, -52.967, 37.150, 29.63, 0.1507, 0.73691, -0.23001, 0.61746,
 11:17:34.996,e8:9e:2c:53:09:e3, 2024-07-06 21:51:42:405, 0.961, -0.033, -0.222, -2.197, 4.578, 2.258, -161.807, -78.393, -50.647, -35.600, -52.967, 37.150, 29.63, 0.1507, 0.73691, -0.23001, 0.61746,
 11:17:35.071,e8:9e:2c:53:09:e3, 2024-07-06 21:51:42:505, 0.964, -0.036, -0.202, 3.418, 2.991, 2.258, -160.719, -78.64, -52.366, -35.667, -53.058, 36.733, 29.63, 0.1507, 0.73691, -0.23001, 0.61746,
 11:17:35.189,e8:9e:2c:53:09:e3, 2024-07-06 21:51:42:605, 0.964, -0.04, -0.206, 6.348, 1.16, 3.906, -158.972, -78.646, -54.19, -35.667, -53.058, 36.733, 29.63, 0.15848, 0.72989, -0.24316, 0.61877,
 11:17:35.282,e8:9e:2c:53:09:e3, 2024-07-06 21:51:42:705, 0.966, -0.058, -0.208, 2.991, 4.15, 1.648, -157.137, -78.783, -56.146, -35.667, -53.058, 36.733, 29.63, 0.15848, 0.72989, -0.24316, 0.61877,
 11:17:35.400,e8:9e:2c:53:09:e3, 2024-07-06 21:51:42:805, 0.965, -0.054, -0.2, 1.953, 4.639, -1.404, -156.72, -79.113, -56.81, -36.467, -52.417, 36.700, 29.63, 0.16226, 0.72403, -0.24591, 0.62363,
 11:17:35.475,e8:9e:2c:53:09:e3, 2024-07-06 21:51:42:905, 0.966, -0.042, -0.189, 0.122, 4.395, -2.075, -157.28, -79.536, -56.541, -36.467, -52.417, 36.700, 29.63, 0.16226, 0.72403, -0.24591, 0.62363,
 11:17:35.611,e8:9e:2c:53:09:e3, 2024-07-06 21:51:43:005, 0.97, -0.043, -0.184, 0.366, 3.845, -2.625, -158.214, -79.92, -55.992, -36.467, -52.417, 36.700, 29.63, 0.16226, 0.72403, -0.24591, 0.62363,
 11:17:35.670,e8:9e:2c:53:09:e3, 2024-07-06 21:51:43:105, 0.971, -0.039, -0.181, 0.916, 3.784, -1.465, -158.89, -80.255, -55.657, -36.725, -53.042, 35.675, 29.63, 0.16226, 0.72403, -0.24591, 0.62363,
 11:17:35.805,e8:9e:2c:53:09:e3, 2024-07-06 21:51:43:205, 0.972, -0.039, -0.178, 1.099, 4.944, -2.93, -159.571, -80.651, -55.283, -36.725, -53.042, 35.675, 29.63, 0.17618, 0.71762, -0.24637, 0.62701,
 11:17:35.880,e8:9e:2c:53:09:e3, 2024-07-06 21:51:43:305, 0.974, -0.024, -0.166, 1.709, 5.371, -4.272, -161.082, -81.189, -54.053, -36.725, -53.042, 35.675, 29.63, 0.17618, 0.71762, -0.24637, 0.62701,
 11:17:36.000,e8:9e:2c:53:09:e3, 2024-07-06 21:51:43:405, 0.975, -0.008, -0.153, 1.587, 2.808, -1.099, -162.62, -81.623, -52.756, -37.067, -53.842, 34.867, 29.63, 0.18674, 0.71317, -0.24493, 0.62961,
 11:17:36.077,e8:9e:2c:53:09:e3, 2024-07-06 21:51:43:505, 0.975, -0.018, -0.16, 1.343, 1.465, 0.427, -162.966, -81.755, -52.751, -37.067, -53.842, 34.867, 29.63, 0.18674, 0.71317, -0.24493, 0.62961,
 11:17:36.209,e8:9e:2c:53:09:e3, 2024-07-06 21:51:43:605, 0.975, -0.019, -0.161, 0.732, 1.465, 0.61, -162.999, -81.81, -53.135, -37.067, -53.842, 34.867, 29.63, 0.18674, 0.71317, -0.24493, 0.62961,
 11:17:36.285,e8:9e:2c:53:09:e3, 2024-07-06 21:51:43:705, 0.974, -0.015, -0.158, 1.831, 1.465, 0.244, -162.977, -81.87, -53.558, -37.133, -53.850, 34.742, 29.63, 0.18674, 0.71317, -0.24493, 0.62961,
 11:17:36.420,e8:9e:2c:53:09:e3, 2024-07-06 21:51:43:805, 0.974, -0.014, -0.157, 0.854, 1.465, 0.061, -163.141, -81.936, -53.8, -37.133, -53.850, 34.742, 29.63, 0.19446, 0.70963, -0.25198, 0.62848,
 11:17:36.495,e8:9e:2c:53:09:e3, 2024-07-06 21:51:43:905, 0.976, -0.008, -0.153, 0.366, 1.404, 0.366, -163.405, -82.013, -54.053, -37.133, -53.850, 34.742, 29.63, 0.19446, 0.70963, -0.25198, 0.62848,
 11:17:36.601,e8:9e:2c:53:09:e3, 2024-07-06 21:51:44:005, 0.98, -0.013, -0.154, 0.916, 0.793, 0.732, -163.383, -82.024, -54.575, -37.175, -53.933, 34.750, 29.63, 0.2056, 0.70535, -0.26041, 0.62631,
 11:17:36.691,e8:9e:2c:53:09:e3, 2024-07-06 21:51:44:105, 0.977, -0.009, -0.155, 2.93, 2.747, -2.136, -165.13, -82.282, -53.685, -37.175, -53.933, 34.750, 29.63, 0.2056, 0.70535, -0.26041, 0.62631,
 11:17:36.825,e8:9e:2c:53:09:e3, 2024-07-06 21:51:44:205, 0.967, -0.039, -0.136, -6.592, 0.244, 2.136, -165.031, -82.222, -54.635, -37.175, -53.933, 34.750, 29.63, 0.2056, 0.70535, -0.26041, 0.62631,
 11:17:36.887,e8:9e:2c:53:09:e3, 2024-07-06 21:51:44:305, 0.992, -0.014, -0.132, -4.517, 5.127, -1.648, -165.894, -82.502, -55.14, -37.442, -55.567, 33.242, 29.63, 0.2056, 0.70535, -0.26041, 0.62631,
 11:17:37.008,e8:9e:2c:53:09:e3, 2024-07-06 21:51:44:405, 1.003, 0.066, -0.083, 0.671, 9.583, -6.653, -167.267, -83.095, -54.245, -37.442, -55.567, 33.242, 29.55, 0.22406, 0.69653, -0.27304, 0.62445,
 11:17:37.095,e8:9e:2c:53:09:e3, 2024-07-06 21:51:44:505, 1.03, 0.084, -0.113, 6.836, 11.108, -6.104, -171.447, -84.1, -50.977, -37.442, -55.567, 33.242, 29.55, 0.22406, 0.69653, -0.27304, 0.62445,
 11:17:37.215,e8:9e:2c:53:09:e3, 2024-07-06 21:51:44:605, 1.324, -0.093, -0.176, -11.536, 30.701, -28.015, 168.816, -85.897, -31.734, -37.442, -55.567, 33.242, 29.55, 0.22406, 0.69653, -0.27304, 0.62445,
 11:17:37.291,e8:9e:2c:53:09:e3, 2024-07-06 21:51:44:705, 0.532, 0.019, -0.095, -36.865, 50.903, -54.993, 89.753, -84.485, 46.989, -35.467, -63.642, 24.950, 29.55, 0.22406, 0.69653, -0.27304, 0.62445,
 11:17:37.410,e8:9e:2c:53:09:e3, 2024-07-06 21:51:44:805, 0.963, -0.485, -0.178, -56.396, 11.169, -10.803, 72.856, -79.338, 65.638, -35.467, -63.642, 24.950, 29.55, 0.314, 0.66306, -0.18439, 0.65393,
 11:17:37.485,e8:9e:2c:53:09:e3, 2024-07-06 21:51:44:905, 1.2, -0.215, -0.018, 51.636, -72.021, 99.548, 129.787, -85.155, 16.441, -35.467, -63.642, 24.950, 29.55, 0.314, 0.66306, -0.18439, 0.65393,
 11:17:37.622,e8:9e:2c:53:09:e3, 2024-07-06 21:51:45:005, 1.206, 0.656, 0.047, 58.655, -44.8, 61.035, -149.513, -78.882, -53.047, -41.492, -48.933, 37.325, 29.55, 0.10712, 0.74509, -0.18439, 0.65393,
 11:17:37.695,e8:9e:2c:53:09:e3, 2024-07-06 21:51:45:105, 0.967, 0.031, -0.175, 23.865, -12.39, -37.781, -162.653, -79.135, -42.929, -41.492, -48.933, 37.325, 29.55, 0.10712, 0.74509, -0.18713, 0.63107,
 11:17:37.815,e8:9e:2c:53:09:e3, 2024-07-06 21:51:45:205, 0.956, -0.058, -0.107, 15.015, -1.709, -23.804, 177.319, -79.92, -22.917, -41.492, -48.933, 37.325, 29.55, 0.10712, 0.74509, -0.18713, 0.63107,
 11:17:37.891,e8:9e:2c:53:09:e3, 2024-07-06 21:51:45:305, 0.979, 0.048, -0.174, -4.15, -10.681, -8.667, 168.552, -79.167, -12.766, -36.692, -50.442, 41.383, 29.55, 0.10712, 0.74509, -0.18713, 0.63107,
 11:17:38.010,e8:9e:2c:53:09:e3, 2024-07-06 21:51:45:405, 0.96, 0.058, -0.222, -0.671, -9.705, -6.47, 165.894, -78.014, -8.443, -36.692, -50.442, 41.383, 29.55, 0.1423, 0.76212, -0.1362, 0.61664,
 11:17:38.100,e8:9e:2c:53:09:e3, 2024-07-06 21:51:45:505, 0.967, 0.063, -0.208, -5.188, 4.761, -9.766, 162.092, -77.618, -3.724, -36.692, -50.442, 41.383, 29.55, 0.1423, 0.76212, -0.1362, 0.61664,
 11:17:38.235,e8:9e:2c:53:09:e3, 2024-07-06 21:51:45:605, 0.968, 0.096, -0.186, -9.399, 3.601, -3.662, 157.813, -77.69, 1.879, -29.775, -54.767, 39.517, 29.55, 0.14081, 0.76376, -0.10269, 0.62143,
 11:17:38.296,e8:9e:2c:53:09:e3, 2024-07-06 21:51:45:705, 0.992, 0.09, -0.149, -15.442, 9.338, -2.319, 153.325, -78.3, 6.801, -29.775, -54.767, 39.517, 29.55, 0.14081, 0.76376, -0.10269, 0.62143,
 11:17:38.416,e8:9e:2c:53:09:e3, 2024-07-06 21:51:45:805, 1.018, 0.088, -0.186, -10.742, 14.038, -4.639, 148.266, -79.058, 12.376, -29.775, -54.767, 39.517, 29.55, 0.14081, 0.76376, -0.10269, 0.62143,
 11:17:38.490,e8:9e:2c:53:09:e3, 2024-07-06 21:51:45:905, 1.208, 0.071, -0.235, -4.456, 33.752, -16.479, 136.351, -80.145, 25.648, -25.950, -61.075, 33.808, 29.55, 0.14081, 0.76376, -0.10269, 0.62143,
 11:17:38.625,e8:9e:2c:53:09:e3, 2024-07-06 21:51:46:005, 1.172, 0.097, -0.227, -32.471, 50.964, -64.148, 106.15, -78.86, 58.436, -25.950, -61.075, 33.808, 29.55, 0.15521, 0.72653, -0.03412, 0.66843,
 11:17:38.700,e8:9e:2c:53:09:e3, 2024-07-06 21:51:46:105, 0.491, 0, -0.227, -26.184, 63.416, -92.773, 78.948, -70.999, 86.666, -25.950, -61.075, 33.808, 29.55, 0.15521, 0.72653, -0.03412, 0.66843,
 11:17:38.820,e8:9e:2c:53:09:e3, 2024-07-06 21:51:46:205, 0.632, -0.219, -0.104, -111.328, 12.451, -35.217, 72.966, -62.38, 95.339, -18.733, -75.267, 17.325, 29.55, 0.15521, 0.72653, -0.03412, 0.66843,
 11:17:38.896,e8:9e:2c:53:09:e3, 2024-07-06 21:51:46:305, 1.292, -0.211, -0.057, 50.11, -74.158, 105.652, 75.465, -68.824, 88.874, -18.733, -75.267, 17.325, 29.55, 0.22739, 0.67065, 0.03857, 0.70493,
 11:17:39.015,e8:9e:2c:53:09:e3, 2024-07-06 21:51:46:405, 1.333, 0.21, -0.023, 34.363, -106.018, 169.373, 135.654, -83.952, 27.197, -18.733, -75.267, 17.325, 29.55, 0.22739, 0.67065, 0.03857, 0.70493,
 11:17:39.105,e8:9e:2c:53:09:e3, 2024-07-06 21:51:46:505, 1.429, 1.207, 0.305, 34.973, -28.687, 39.856, -149.057, -77.904, -42.275, -41.283, -49.242, 39.042, 29.55, 0.22739, 0.67065, 0.03857, 0.70493,
 11:17:39.225,e8:9e:2c:53:09:e3, 2024-07-06 21:51:46:605, 0.968, 0.506, -0.034, 72.754, 16.418, -65.979, -175.188, -80.898, -14.376, -41.283, -49.242, 39.042, 29.55, 0.0502, 0.75818, -0.07764, 0.64539,
 11:17:39.300,e8:9e:2c:53:09:e3, 2024-07-06 21:51:46:705, 0.98, 0.082, -0.1, -13.977, -3.418, -13.428, 162.4, -81.101, 10.327, -41.283, -49.242, 39.042, 29.55, 0.0502, 0.75818, -0.07764, 0.64539,
 11:17:39.421,e8:9e:2c:53:09:e3, 2024-07-06 21:51:46:805, 0.957, 0.012, -0.262, -5.615, -11.23, -3.784, 160.708, -79.915, 14.661, -35.442, -54.525, 39.225, 29.55, 0.03983, 0.76471, 0.00964, 0.64301,
 11:17:39.525,e8:9e:2c:53:09:e3, 2024-07-06 21:51:46:905, 0.966, 0.09, -0.215, -7.69, 1.221, -10.498, 154.94, -79.206, 23.368, -35.442, -54.525, 39.225, 29.55, 0.03983, 0.76471, 0.00964, 0.64301,
 11:17:39.631,e8:9e:2c:53:09:e3, 2024-07-06 21:51:47:005, 0.951, 0.1, -0.225, -10.193, 0.488, -3.052, 151.534, -78.843, 29.982, -35.442, -54.525, 39.225, 29.55, 0.03983, 0.76471, 0.00964, 0.64301,
 11:17:39.706,e8:9e:2c:53:09:e3, 2024-07-06 21:51:47:105, 0.977, 0.076, -0.238, -9.399, 7.874, -9.216, 147.338, -78.673, 37.551, -25.842, -61.558, 34.442, 29.55, 0.03983, 0.76471, 0.00964, 0.64301,
 11:17:39.825,e8:9e:2c:53:09:e3, 2024-07-06 21:51:47:205, 1.009, 0.103, -0.215, -10.437, 15.747, -11.353, 140.125, -78.739, 47.977, -25.842, -61.558, 34.442, 29.55, -0.00162, 0.75186, 0.09787, 0.65195,
 11:17:39.931,e8:9e:2c:53:09:e3, 2024-07-06 21:51:47:305, 1.218, 0.127, -0.188, -23.804, 40.833, -28.259, 123.464, -78.838, 67.725, -25.842, -61.558, 34.442, 29.55, -0.00162, 0.75186, 0.09787, 0.65195,
 11:17:40.036,e8:9e:2c:53:09:e3, 2024-07-06 21:51:47:405, 1.25, 0.054, -0.088, -28.87, 59.021, -48.706, 95.175, -76.569, 99.053, -20.208, -70.783, 23.667, 29.55, -0.00162, 0.75186, 0.09787, 0.65195,
 11:17:40.110,e8:9e:2c:53:09:e3, 2024-07-06 21:51:47:505, 1.009, 0.083, -0.215, -39.124, 79.529, -79.407, 74.91, -69.313, 123.574, -20.208, -70.783, 23.667, 29.55, 0.00653, 0.62277, 0.23712, 0.74551,
 11:17:40.230,e8:9e:2c:53:09:e3, 2024-07-06 21:51:47:605, 0.335, 0.5, -0.152, -72.449, 42.358, -93.872, 64.698, -58.502, 127.925, -20.208, -70.783, 23.667, 29.55, 0.00653, 0.62277, 0.23712, 0.74551,
 11:17:40.306,e8:9e:2c:53:09:e3, 2024-07-06 21:51:47:705, 0.705, -0.523, 0.022, -84.412, -19.226, 23.56, 52.767, -54.75, 122.349, -11.617, -82.100, 2.433, 29.55, 0.00653, 0.62277, 0.23712, 0.74551,
 11:17:40.425,e8:9e:2c:53:09:e3, 2024-07-06 21:51:47:805, 1.492, -0.161, 0.004, 82.52, -114.075, 128.967, 58.629, -67.066, 117.285, -11.617, -82.100, 2.433, 29.55, 0.13312, 0.63425, 0.09357, 0.75574,
 11:17:40.517,e8:9e:2c:53:09:e3, 2024-07-06 21:51:47:905, 1.23, 0.378, 0.085, 116.333, -127.563, 175.354, 133.176, -85.957, 52.07, -11.617, -82.100, 2.433, 29.55, 0.13312, 0.63425, 0.09357, 0.75574,
 11:17:40.635,e8:9e:2c:53:09:e3, 2024-07-06 21:51:48:005, 0.868, 1.303, 0.228, 67.322, -20.996, 11.414, -142.048, -78.157, -26.598, -40.725, -49.817, 39.633, 29.55, -0.06912, 0.76508, 0.03326, 0.63928,
 11:17:40.712,e8:9e:2c:53:09:e3, 2024-07-06 21:51:48:105, 0.942, 0.242, -0.024, 10.864, 12.268, -38.94, -170.398, -80.222, -1.412, -40.725, -49.817, 39.633, 29.55, -0.06912, 0.76508, 0.03326, 0.63928,
 11:17:40.829,e8:9e:2c:53:09:e3, 2024-07-06 21:51:48:205, 0.986, 0.026, -0.199, -0.549, -7.812, -7.812, 172.529, -79.678, 11.261, -40.725, -49.817, 39.633, 29.55, -0.06912, 0.76508, 0.03326, 0.63928,
 11:17:40.922,e8:9e:2c:53:09:e3, 2024-07-06 21:51:48:305, 0.958, 0.072, -0.246, -15.198, -0.061, -17.517, 163.773, -78.75, 17.205, -34.375, -55.667, 38.808, 29.55, -0.06912, 0.76508, 0.03326, 0.63928,
 11:17:41.040,e8:9e:2c:53:09:e3, 2024-07-06 21:51:48:405, 0.974, 0.129, -0.148, -8.24, 7.507, -13.367, 152.699, -78.761, 26.356, -34.375, -55.667, 38.808, 29.55, 0.03616, 0.76562, 0.02545, 0.64166,
 11:17:41.115,e8:9e:2c:53:09:e3, 2024-07-06 21:51:48:505, 0.976, 0.108, -0.175, -10.864, -0.549, -3.967, 148.887, -78.574, 28.652, -34.375, -55.667, 38.808, 29.55, 0.03616, 0.76562, 0.02545, 0.64166,
 11:17:41.235,e8:9e:2c:53:09:e3, 2024-07-06 21:51:48:605, 1.026, 0.095, -0.188, -17.151, 17.09, -13.611, 140.834, -78.843, 34.431, -25.942, -63.058, 32.533, 29.55, 0.08487, 0.74747, 0.0209, 0.65845,
 11:17:41.325,e8:9e:2c:53:09:e3, 2024-07-06 21:51:48:705, 1.286, 0.168, -0.193, -14.404, 40.1, -35.95, 121.503, -78.58, 53.218, -25.942, -63.058, 32.533, 29.55, 0.08487, 0.74747, 0.0209, 0.65845,
 11:17:41.446,e8:9e:2c:53:09:e3, 2024-07-06 21:51:48:805, 1.24, 0.089, -0.125, -19.226, 65.369, -62.561, 93.702, -75.696, 80.843, -25.942, -63.058, 32.533, 29.55, 0.08487, 0.74747, 0.0209, 0.65845,
 11:17:41.537,e8:9e:2c:53:09:e3, 2024-07-06 21:51:48:905, 0.507, 0.05, -0.395, -21.79, 81.421, -109.436, 72.092, -66.89, 103.815, -16.242, -76.900, 16.283, 29.55, 0.08487, 0.74747, 0.0209, 0.65845,
 11:17:41.641,e8:9e:2c:53:09:e3, 2024-07-06 21:51:49:005, 0.233, 0.493, 0.139, -56.396, 27.832, -60.73, 68.258, -55.256, 110.132, -16.242, -76.900, 16.283, 29.55, 0.20392, 0.60358, 0.18207, 0.7489,
 11:17:41.715,e8:9e:2c:53:09:e3, 2024-07-06 21:51:49:105, 1.161, -0.214, 0.008, 54.199, -65.735, 86.304, 66.945, -57.222, 112.495, -16.242, -76.900, 16.283, 29.55, 0.20392, 0.60358, 0.18207, 0.7489,
 11:17:41.836,e8:9e:2c:53:09:e3, 2024-07-06 21:51:49:205, 1.511, 0.079, -0.005, 93.14, -123.535, 168.823, 83.743, -73.993, 95.839, -27.733, -74.292, 16.417, 29.55, -0.03079, 0.76147, 0.04166, 0.64603,
 11:17:41.925,e8:9e:2c:53:09:e3, 2024-07-06 21:51:49:305, 1.25, 0.645, -0.063, 85.999, -95.337, 147.827, -169.579, -78.97, -3.593, -27.733, -74.292, 16.417, 29.55, -0.03079, 0.76147, 0.04166, 0.64603,
 11:17:42.061,e8:9e:2c:53:09:e3, 2024-07-06 21:51:49:405, 1.079, 0.788, 0.431, 48.523, 3.235, -25.024, -152.358, -72.087, -19.517, -27.733, -74.292, 16.417, 29.55, -0.03079, 0.76147, 0.04166, 0.64603,
 11:17:42.121,e8:9e:2c:53:09:e3, 2024-07-06 21:51:49:505, 0.947, 0.076, -0.159, 3.479, 20.813, -55.42, -172.579, -75.734, -0.077, -39.900, -45.517, 46.192, 29.55, -0.03079, 0.76147, 0.04166, 0.64603,
 11:17:42.241,e8:9e:2c:53:09:e3, 2024-07-06 21:51:49:605, 0.978, 0.004, -0.139, -19.714, -0.183, -16.235, 169.623, -76.976, 16.315, -39.900, -45.517, 46.192, 29.55, -0.01791, 0.77957, 0.05493, 0.62357,
 11:17:42.330,e8:9e:2c:53:09:e3, 2024-07-06 21:51:49:705, 0.947, 0.017, -0.26, -17.7, -0.916, -8.545, 164.174, -76.514, 22.379, -39.900, -45.517, 46.192, 29.55, -0.01791, 0.77957, 0.05493, 0.62357,
 11:17:42.450,e8:9e:2c:53:09:e3, 2024-07-06 21:51:49:805, 0.947, 0.074, -0.204, -10.925, -2.502, 4.822, 163.125, -76.399, 24.818, -35.483, -55.475, 39.308, 29.55, -0.02527, 0.77838, 0.08475, 0.62146,
 11:17:42.525,e8:9e:2c:53:09:e3, 2024-07-06 21:51:49:905, 0.965, 0.038, -0.212, 1.892, -1.16, 0.427, 163.911, -76.36, 25.757, -35.483, -55.475, 39.308, 29.55, -0.02527, 0.77838, 0.08475, 0.62146,
 11:17:42.659,e8:9e:2c:53:09:e3, 2024-07-06 21:51:50:005, 0.979, -0.021, -0.265, -6.226, 4.089, -10.986, 162.493, -76.284, 29.619, -35.483, -55.475, 39.308, 29.55, -0.02527, 0.77838, 0.08475, 0.62146,
 11:17:42.721,e8:9e:2c:53:09:e3, 2024-07-06 21:51:50:105, 1.028, -0.015, -0.275, -14.832, 24.048, -25.94, 152.331, -76.729, 41.715, -26.033, -61.667, 33.717, 29.55, -0.02527, 0.77838, 0.08475, 0.62146,
 11:17:42.855,e8:9e:2c:53:09:e3, 2024-07-06 21:51:50:205, 1.336, 0.111, -0.217, -28.992, 53.528, -38.818, 129.639, -77.531, 65.874, -26.033, -61.667, 33.717, 29.55, -0.02805, 0.73279, 0.16327, 0.65991,
 11:17:42.945,e8:9e:2c:53:09:e3, 2024-07-06 21:51:50:305, 1.188, 0.015, -0.106, -31.86, 76.843, -78.003, 93.697, -74.257, 103.337, -26.033, -61.667, 33.717, 29.55, -0.02805, 0.73279, 0.16327, 0.65991,
 11:17:43.050,e8:9e:2c:53:09:e3, 2024-07-06 21:51:50:405, 0.415, 0.25, -0.343, -22.461, 78.186, -111.694, 75.042, -63.287, 126.81, -17.417, -76.675, 17.025, 29.55, 0.03369, 0.54413, 0.33127, 0.77002,
 11:17:43.125,e8:9e:2c:53:09:e3, 2024-07-06 21:51:50:505, 0.552, 0.388, 0.072, -80.444, 25.024, -47.974, 69.697, -53.558, 135.549, -17.417, -76.675, 17.025, 29.55, 0.03369, 0.54413, 0.33127, 0.77002,
 11:17:43.245,e8:9e:2c:53:09:e3, 2024-07-06 21:51:50:605, 1.509, -0.079, -0.025, 58.35, -89.6, 130.554, 75.85, -60.485, 131.457, -17.417, -76.675, 17.025, 29.55, 0.03369, 0.54413, 0.33127, 0.77002,
 11:17:43.335,e8:9e:2c:53:09:e3, 2024-07-06 21:51:50:705, 1.357, 0.157, -0.074, 89.539, -140.015, 195.984, 111.857, -78.289, 92.521, -36.692, -59.608, 31.900, 29.55, 0.03369, 0.54413, 0.33127, 0.77002,
 11:17:43.455,e8:9e:2c:53:09:e3, 2024-07-06 21:51:50:805, 1.003, 1.042, 0.054, 18.677, -63.965, 84.9, -157.209, -73.185, 8.273, -36.692, -59.608, 31.900, 29.55, -0.19675, 0.77121, 0.18042, 0.57782,
 11:17:43.531,e8:9e:2c:53:09:e3, 2024-07-06 21:51:50:905, 0.933, -1.607, -0.462, -53.711, 13.184, -32.043, -168.146, -72.021, 10.448, -36.692, -59.608, 31.900, 29.55, -0.19675, 0.77121, 0.18042, 0.57782,
 11:17:43.652,e8:9e:2c:53:09:e3, 2024-07-06 21:51:51:005, 0.967, 0.087, -0.226, -28.87, 13.306, -36.072, 170.2, -73.976, 30.608, -38.633, -46.225, 46.067, 29.55, -0.19675, 0.77121, 0.18042, 0.57782,
 11:17:43.743,e8:9e:2c:53:09:e3, 2024-07-06 21:51:51:105, 0.96, 0.049, -0.273, -7.446, -4.333, -16.296, 159.807, -73.834, 38.524, -38.633, -46.225, 46.067, 29.55, -0.06204, 0.77771, 0.16049, 0.60452,
 11:17:43.860,e8:9e:2c:53:09:e3, 2024-07-06 21:51:51:205, 0.947, 0.081, -0.264, -5.371, 7.629, -15.137, 154.155, -73.597, 43.456, -38.633, -46.225, 46.067, 29.55, -0.06204, 0.77771, 0.16049, 0.60452,
 11:17:43.936,e8:9e:2c:53:09:e3, 2024-07-06 21:51:51:305, 0.974, 0.137, -0.186, -1.831, 2.075, -7.812, 149.749, -73.746, 47.9, -32.767, -58.125, 38.050, 29.55, -0.06204, 0.77771, 0.16049, 0.60452,
 11:17:44.055,e8:9e:2c:53:09:e3, 2024-07-06 21:51:51:405, 0.969, 0.111, -0.222, -11.047, 5.127, -5.432, 147.491, -73.79, 50.087, -32.767, -58.125, 38.050, 29.55, -0.0412, 0.76666, 0.17276, 0.61691,
 11:17:44.145,e8:9e:2c:53:09:e3, 2024-07-06 21:51:51:505, 1.087, 0.083, -0.23, -14.343, 12.329, -7.568, 144.08, -74.229, 53.015, -32.767, -58.125, 38.050, 29.55, -0.0412, 0.76666, 0.17276, 0.61691,
 11:17:44.265,e8:9e:2c:53:09:e3, 2024-07-06 21:51:51:605, 1.188, 0.148, -0.286, -21.79, 47.852, -36.682, 128.996, -74.888, 68.159, -25.325, -65.300, 30.458, 29.55, -0.00601, 0.71133, 0.19589, 0.6749,
 11:17:44.340,e8:9e:2c:53:09:e3, 2024-07-06 21:51:51:705, 1.238, 0.034, -0.091, -43.64, 71.228, -62.988, 100.091, -73.174, 96.35, -25.325, -65.300, 30.458, 29.55, -0.00601, 0.71133, 0.19589, 0.6749,
 11:17:44.460,e8:9e:2c:53:09:e3, 2024-07-06 21:51:51:805, 0.517, 0.026, -0.235, 3.418, 78.674, -109.07, 78.909, -64.748, 119.839, -25.325, -65.300, 30.458, 29.55, -0.00601, 0.71133, 0.19589, 0.6749,
 11:17:44.565,e8:9e:2c:53:09:e3, 2024-07-06 21:51:51:905, 0.403, 0.507, 0.094, -45.044, 46.753, -59.875, 74.125, -53.877, 130.715, -14.008, -80.083, 10.967, 29.55, -0.00601, 0.71133, 0.19589, 0.6749,
 11:17:44.655,e8:9e:2c:53:09:e3, 2024-07-06 21:51:52:005, 1.18, -0.141, -0.085, 49.622, -56.03, 96.008, 78.739, -57.475, 133.308, -14.008, -80.083, 10.967, 29.55, -0.00604, 0.5589, 0.36191, 0.746,
 11:17:44.745,e8:9e:2c:53:09:e3, 2024-07-06 21:51:52:105, 1.492, -0.023, -0.009, 55.359, -125.549, 184.021, 100.415, -74.707, 108.583, -14.008, -80.083, 10.967, 29.55, -0.00604, 0.5589, 0.36191, 0.746,
 11:17:44.865,e8:9e:2c:53:09:e3, 2024-07-06 21:51:52:205, 1.395, 1.632, 0.067, 70.984, -55.847, 93.445, -174.364, -75.921, 28.07, -41.292, -49.908, 38.475, 29.55, -0.12036, 0.76877, 0.20145, 0.59482,
 11:17:44.971,e8:9e:2c:53:09:e3, 2024-07-06 21:51:52:305, 0.959, 0.8, -0.327, 220.398, 0.977, -91.187, 165.569, -73.823, 44.319, -41.292, -49.908, 38.475, 29.55, -0.12036, 0.76877, 0.20145, 0.59482,
 11:17:45.060,e8:9e:2c:53:09:e3, 2024-07-06 21:51:52:405, 0.986, 0.118, -0.154, -6.531, -12.39, -6.47, 153.512, -72.098, 47.609, -37.792, -55.525, 39.517, 29.55, -0.12036, 0.76877, 0.20145, 0.59482,
 11:17:45.150,e8:9e:2c:53:09:e3, 2024-07-06 21:51:52:505, 0.94, 0.13, -0.212, -7.69, 0.671, -11.353, 149.634, -70.983, 45.291, -37.792, -55.525, 39.517, 29.55, -0.01151, 0.784, 0.15683, 0.6004,
 11:17:45.272,e8:9e:2c:53:09:e3, 2024-07-06 21:51:52:605, 0.976, 0.155, -0.147, -5.92, 7.202, -7.507, 143.948, -71.153, 46.082, -37.792, -55.525, 39.517, 29.55, -0.01151, 0.784, 0.15683, 0.6004,
 11:17:45.345,e8:9e:2c:53:09:e3, 2024-07-06 21:51:52:705, 0.99, 0.106, -0.184, -0.671, -0.732, 0.732, 141.784, -71.505, 43.989, -30.733, -61.275, 33.492, 29.55, -0.01151, 0.784, 0.15683, 0.6004,
 11:17:45.465,e8:9e:2c:53:09:e3, 2024-07-06 21:51:52:805, 1.151, 0.126, -0.213, -7.202, 18.066, -11.353, 139.01, -72.125, 42.957, -30.733, -61.275, 33.492, 29.55, 0.05783, 0.78119, 0.08835, 0.61523,
 11:17:45.569,e8:9e:2c:53:09:e3, 2024-07-06 21:51:52:905, 1.376, 0.129, -0.28, -16.479, 54.138, -44.373, 123.426, -72.768, 55.953, -30.733, -61.275, 33.492, 29.55, 0.05783, 0.78119, 0.08835, 0.61523,
 11:17:45.675,e8:9e:2c:53:09:e3, 2024-07-06 21:51:53:005, 0.905, 0.127, -0.083, -53.04, 73.975, -73.303, 97.778, -69.873, 78.86, -22.417, -72.292, 21.325, 29.55, 0.17465, 0.68073, 0.14011, 0.69742,
 11:17:45.749,e8:9e:2c:53:09:e3, 2024-07-06 21:51:53:105, 0.51, 0.467, -0.125, -74.341, 33.447, -93.262, 83.331, -61.265, 93.972, -22.417, -72.292, 21.325, 29.55, 0.17465, 0.68073, 0.14011, 0.69742,
 11:17:45.870,e8:9e:2c:53:09:e3, 2024-07-06 21:51:53:205, 0.909, -0.238, 0.013, 32.227, -44.617, 40.161, 81.475, -59.227, 95.092, -22.417, -72.292, 21.325, 29.55, 0.17465, 0.68073, 0.14011, 0.69742,
 11:17:45.946,e8:9e:2c:53:09:e3, 2024-07-06 21:51:53:305, 1.254, 0.089, -0.04, 38.757, -68.359, 137.329, 93.356, -69.747, 79.651, -29.100, -72.133, 19.217, 29.55, 0.17465, 0.68073, 0.14011, 0.69742,
 11:17:46.067,e8:9e:2c:53:09:e3, 2024-07-06 21:51:53:405, 1.16, 0.399, -0.185, 135.315, -88.318, 129.089, 154.133, -78.311, 24.51, -29.100, -72.133, 19.217, 29.55, 0.04526, 0.76559, 0.02487, 0.64117,
 11:17:46.155,e8:9e:2c:53:09:e3, 2024-07-06 21:51:53:505, 0.841, 0.7, 0.106, -20.203, -31.982, 33.569, -167.921, -72.323, -15.601, -29.100, -72.133, 19.217, 29.55, 0.04526, 0.76559, 0.02487, 0.64117,
 11:17:46.275,e8:9e:2c:53:09:e3, 2024-07-06 21:51:53:605, 0.924, -0.197, 0.042, 2.258, 16.541, -39.917, -174.705, -73.339, -7.614, -41.133, -46.992, 42.992, 29.55, -0.01111, 0.79602, 0.02332, 0.60461,
 11:17:46.352,e8:9e:2c:53:09:e3, 2024-07-06 21:51:53:705, 0.964, 0.225, -0.212, 22.461, 11.353, -42.908, 171.096, -74.575, 10.085, -41.133, -46.992, 42.992, 29.55, -0.01111, 0.79602, 0.02332, 0.60461,
 11:17:46.499,e8:9e:2c:53:09:e3, 2024-07-06 21:51:53:805, 0.975, -0.004, -0.197, 5.981, -9.949, -13.428, 160.28, -74.015, 14.244, -41.133, -46.992, 42.992, 29.55, -0.01111, 0.79602, 0.02332, 0.60461,
